Stethoscope	ECG
0.168152	0.122986
0.184937	0.129089
0.154114	0.135193
0.0866699	0.140686
-0.00579834	0.145569
-0.0881958	0.150452
-0.132141	0.153809
-0.130005	0.155945
-0.108948	0.158386
-0.0897217	0.161133
-0.0692749	0.164795
-0.0372314	0.168762
0.00793457	0.171814
0.0387573	0.17334
0.0402832	0.17395
0.0317383	0.174561
0.0314331	0.174866
0.0241089	0.174866
0.00366211	0.173645
-0.00518799	0.170593
-0.000610352	0.16571
0.00335693	0.160522
0.00518799	0.154419
0	0.1474
-0.0183105	0.140381
-0.0283813	0.133057
-0.0289917	0.125122
-0.03479	0.116882
-0.0341797	0.108948
-0.0100708	0.101013
0.0326538	0.0924683
0.0595093	0.0842285
0.0543213	0.0775146
0.022583	0.0726318
-0.0140381	0.0686646
-0.0439453	0.0653076
-0.0540161	0.0622559
-0.0332642	0.0592041
0.0088501	0.055542
0.0119019	0.0524902
0.0286865	0.050354
-0.015564	0.0482178
0.0201416	0.045166
0.0921631	0.0408936
0.0787354	0.0369263
-0.0482178	0.0332642
-0.226135	0.0305176
-0.348511	0.0283813
-0.36499	0.0268555
-0.317078	0.0253296
-0.182495	0.0234985
0.31189	0.0213623
0.862732	0.0201416
1.0379	0.0198364
0.802612	0.0201416
0.24231	0.020752
-0.399475	0.0219727
-0.795288	0.0238037
-0.895081	0.0256348
-0.834656	0.0280762
-0.54657	0.0308228
0.26001	0.0332642
0.801086	0.0354004
0.755005	0.0366211
0.440674	0.0375366
0.141907	0.0393677
-0.0570679	0.0415039
-0.157776	0.0436401
-0.184326	0.0454712
-0.160828	0.0469971
-0.125732	0.0491333
-0.119629	0.0515747
-0.137939	0.0540161
-0.137634	0.0570679
-0.10437	0.0604248
-0.06073	0.0631714
-0.027771	0.0646973
-0.0106812	0.0650024
0.00427246	0.0662231
0.0247192	0.0686646
0.0546265	0.0720215
0.11261	0.0747681
0.189514	0.0759888
0.221863	0.0765991
0.19104	0.0772095
0.12085	0.0784302
0.0485229	0.0796509
0.00274658	0.0802612
-0.032959	0.0787354
-0.0753784	0.0769043
-0.115356	0.0750732
-0.146484	0.0741577
-0.158997	0.0741577
-0.141296	0.0732422
-0.0985718	0.0720215
-0.0552368	0.0717163
-0.0354004	0.0723267
-0.0231934	0.072937
-0.0149536	0.072937
-0.0131226	0.0720215
-0.00701904	0.0708008
0.0109863	0.0698853
0.0314331	0.0698853
0.0357056	0.071106
0.0439453	0.0720215
0.067749	0.0717163
0.0650024	0.0717163
-0.00671387	0.0735474
0.0384521	0.0762939
0.161743	0.0802612
0.198975	0.0842285
0.128479	0.0875854
-0.0143433	0.090332
-0.137634	0.0921631
-0.172424	0.0942993
-0.145569	0.0967407
-0.0939941	0.098877
-0.022583	0.100708
0.0289917	0.101624
0.0442505	0.101929
0.0595093	0.103149
0.0793457	0.10498
0.0720215	0.107422
0.0546265	0.111084
0.0549316	0.115356
0.0247192	0.119629
-0.0256348	0.123291
-0.0271606	0.128479
-0.0210571	0.134277
-0.0457764	0.140381
-0.072937	0.147095
-0.0671387	0.152893
-0.0668335	0.158081
-0.0799561	0.162354
-0.0378418	0.1651
0.00671387	0.166626
0.0302124	0.166931
0.0506592	0.1651
0.0588989	0.161743
0.0393677	0.157166
0.00366211	0.152893
0.0100708	0.148926
0.0247192	0.144348
0.017395	0.13855
0.00671387	0.132141
-0.00366211	0.125427
-0.0350952	0.118103
-0.0662231	0.110168
-0.0323486	0.100708
0.0274658	0.0900269
0.0650024	0.0787354
0.0735474	0.067749
0.0695801	0.0579834
0.0222778	0.0497437
-0.0582886	0.0439453
-0.0967407	0.0393677
-0.0918579	0.0366211
-0.0543213	0.0360107
-0.00488281	0.0372314
0.0616455	0.0387573
0.0817871	0.0402832
0.0494385	0.0408936
0.0128174	0.0405884
-0.0271606	0.0396729
-0.0778198	0.0387573
-0.098877	0.038147
-0.0439453	0.0378418
0.0219727	0.0378418
0.0509644	0.038147
0.0524902	0.0384521
0.0534058	0.038147
0.00640869	0.0363159
-0.0695801	0.0320435
-0.0967407	0.0256348
-0.0686646	0.0195313
-0.0192261	0.0140381
0.0427246	0.0106812
0.108032	0.0119019
0.137939	0.0192261
0.101929	0.0369263
0.0427246	0.0695801
0.000610352	0.120239
-0.0393677	0.189514
-0.0717163	0.274658
-0.0747681	0.37262
-0.0494385	0.479736
-0.0292969	0.594482
-0.0167847	0.712891
0.00488281	0.828552
0.0112915	0.930786
-0.0167847	1.00677
-0.0445557	1.04584
-0.0402832	1.04156
-0.022583	0.991821
0.0125122	0.899353
0.0863647	0.769958
0.195923	0.613403
0.271606	0.440979
0.286865	0.265808
0.237122	0.101013
0.0994873	-0.0411987
-0.13916	-0.151367
-0.389709	-0.224609
-0.565491	-0.257874
-0.603333	-0.254822
-0.52002	-0.223389
-0.340881	-0.17395
-0.188904	-0.117798
-0.0579834	-0.0631714
0.223389	-0.0158691
0.65918	0.0204468
1.06445	0.045166
1.22314	0.0592041
1.03271	0.0650024
0.556335	0.0662231
-0.0628662	0.0650024
-0.683594	0.062561
-1.13037	0.0601196
-1.29669	0.0582886
-1.14838	0.0582886
-0.744934	0.0604248
-0.287476	0.0622559
0.0582886	0.0622559
0.323486	0.0616455
0.537415	0.0634766
0.667419	0.0674438
0.726013	0.0717163
0.704956	0.0750732
0.563354	0.078125
0.317078	0.0811768
0.000610352	0.0845337
-0.355835	0.0875854
-0.505066	0.0900269
-0.506897	0.0918579
-0.505981	0.0933838
-0.135803	0.0946045
-0.167542	0.0958252
-0.15686	0.0982666
0.0686646	0.101013
0.280457	0.104065
0.3125	0.107422
0.248108	0.111694
0.145569	0.115967
0.137634	0.119324
0.0378418	0.121765
-0.0177002	0.122986
0.0332642	0.124207
0.00457764	0.124817
-0.124207	0.124512
-0.196533	0.122986
-0.0460815	0.122375
0.0488281	0.122986
0.210266	0.124817
0.32074	0.126648
0.188904	0.128784
-0.112915	0.131836
-0.364075	0.136108
-0.492554	0.140991
-0.490112	0.145569
-0.346985	0.149231
-0.190735	0.152588
-0.0527954	0.15625
0.128479	0.159912
0.295715	0.163879
0.291748	0.167542
0.221863	0.170898
0.0775146	0.174561
-0.0482178	0.178223
-0.0723267	0.181274
-0.0274658	0.184631
0.0323486	0.187378
0.065918	0.19043
0.0811768	0.194397
0.0869751	0.19928
0.0909424	0.203552
0.0927734	0.207825
0.124207	0.211792
0.107422	0.214844
0.0891113	0.217285
0.0457764	0.220337
0.0204468	0.223083
-0.0180054	0.22583
-0.0268555	0.228577
-0.00946045	0.231323
-0.00396729	0.233459
-0.0140381	0.235596
-0.0402832	0.238953
-0.111694	0.243225
-0.142212	0.248718
-0.115662	0.254822
-0.090332	0.261536
-0.0799561	0.268555
-0.0799561	0.275269
0.00640869	0.282593
0.123901	0.289917
0.201111	0.297241
0.118713	0.30426
-0.0317383	0.310669
-0.178223	0.316467
-0.212402	0.321655
-0.124207	0.326233
-0.0283813	0.329895
0.0708008	0.333252
0.159912	0.336304
0.160828	0.33844
0.067749	0.340576
-0.00274658	0.342407
-0.0738525	0.344543
-0.107422	0.346375
-0.0814819	0.347595
0.00244141	0.3479
0.0439453	0.3479
0.0408936	0.34729
0.010376	0.346069
0.0119019	0.343323
-0.0137329	0.338745
-0.0405884	0.333557
-0.0592041	0.327454
-0.039978	0.32074
0.0109863	0.314026
0.0537109	0.308228
0.0463867	0.30304
0.0454712	0.296021
0.0430298	0.288086
0.0170898	0.280762
-0.0250244	0.274658
-0.0564575	0.268555
-0.0250244	0.263062
0.0131226	0.258179
0.0540161	0.253296
0.0564575	0.249023
0.0595093	0.245361
0.0537109	0.24231
0.0521851	0.240173
0.00335693	0.238342
-0.0115967	0.236511
0.0366211	0.23468
0.0314331	0.233459
-0.0436401	0.231934
-0.137939	0.230103
-0.209656	0.228271
-0.234375	0.22583
-0.224609	0.223083
-0.231628	0.220947
-0.25177	0.219421
-0.24353	0.21759
-0.193176	0.215454
0.221252	0.213623
0.856323	0.212708
1.18866	0.212708
1.08795	0.213013
0.628662	0.213623
-0.0552368	0.214844
-0.697632	0.216064
-1.05774	0.21698
-1.10779	0.218811
-0.824585	0.221252
-0.361023	0.223083
0.0518799	0.223999
0.343018	0.223999
0.509033	0.223999
0.52124	0.224304
0.406189	0.225525
0.244751	0.22644
0.0967407	0.227051
-0.0308228	0.228271
-0.121765	0.230103
-0.175171	0.232544
-0.184937	0.235596
-0.153503	0.238647
-0.108948	0.241394
-0.0524902	0.243835
0.0134277	0.246277
0.0561523	0.248413
0.0521851	0.249939
0.0357056	0.251465
0.0448608	0.25238
0.050354	0.252686
0.0332642	0.252991
-0.00579834	0.253601
-0.00732422	0.253601
0.0262451	0.252686
0.0454712	0.25116
0.0872803	0.249023
0.129089	0.247498
0.10498	0.247192
0.0393677	0.246887
-0.0415039	0.246887
-0.101013	0.246582
-0.115356	0.246582
-0.118713	0.248108
-0.137634	0.250549
-0.130005	0.252991
-0.098877	0.255737
-0.0765991	0.259094
-0.0262451	0.263367
0.0405884	0.267334
0.0601196	0.270691
0.0357056	0.273438
0.038147	0.276184
0.0500488	0.278931
0.055542	0.281067
0.0735474	0.283813
0.0860596	0.286865
0.06073	0.290222
0.0119019	0.292969
-0.00549316	0.29541
-0.0189209	0.297241
-0.0524902	0.298767
-0.0683594	0.300598
-0.0296021	0.302734
-0.0170898	0.304565
-0.0109863	0.306091
0.0170898	0.307312
0.0595093	0.308533
0.0741577	0.310364
0.0445557	0.3125
-0.00183105	0.315247
-0.0393677	0.318909
-0.0500488	0.32135
-0.039978	0.322571
-0.00732422	0.322571
-0.000915527	0.321045
-0.0357056	0.318604
-0.043335	0.314026
-0.0125122	0.306702
-0.020752	0.298157
-0.0213623	0.289001
0.0378418	0.279846
0.0692749	0.271606
0.0497437	0.263977
0.0360107	0.256348
0.0357056	0.248718
0.0302124	0.240479
0.0140381	0.232239
-0.00488281	0.223999
0.00335693	0.215454
0.00671387	0.206604
-0.0323486	0.197754
-0.0839233	0.189514
-0.118103	0.181885
-0.12085	0.174561
-0.0918579	0.168457
-0.0750732	0.1651
-0.0408936	0.164185
0.0344849	0.1651
0.0878906	0.166626
0.133057	0.168152
0.157776	0.169983
0.117188	0.171814
0.0646973	0.17395
0.0494385	0.175171
0.00366211	0.174866
-0.0701904	0.172729
-0.0836182	0.168152
-0.0628662	0.159912
-0.045166	0.14801
-0.0158691	0.133667
0.0131226	0.12085
0.0323486	0.111389
0.0317383	0.105591
0.0283813	0.104065
0.0527954	0.110168
0.0662231	0.1297
0.0567627	0.168152
0.015564	0.227051
-0.0152588	0.30304
-0.0476074	0.392761
-0.0759888	0.494995
-0.0949097	0.606995
-0.10498	0.725403
-0.134277	0.844421
-0.159302	0.957947
-0.133362	1.05591
-0.0698853	1.12457
-0.00732422	1.15265
0.0466919	1.13525
0.100098	1.07208
0.131836	0.966492
0.173035	0.826721
0.250244	0.663147
0.324707	0.486755
0.336914	0.310059
0.272827	0.145874
0.137329	0.00640869
-0.0640869	-0.0991821
-0.255737	-0.166016
-0.4422	-0.193787
-0.587769	-0.187073
-0.625916	-0.154419
-0.570374	-0.106201
-0.528564	-0.0518799
-0.449829	-0.000610352
-0.133057	0.0421143
0.403748	0.0738525
0.983276	0.09552
1.37085	0.108337
1.41541	0.114136
1.09924	0.114746
0.544739	0.11261
-0.1474	0.109863
-0.752563	0.106812
-1.11267	0.10437
-1.18774	0.102844
-1.13037	0.102234
-0.942383	0.102234
-0.613098	0.103149
-0.146179	0.103455
0.33783	0.102844
0.778809	0.102234
1.08459	0.103149
1.16211	0.10498
0.951538	0.106506
0.517273	0.107422
0.0167847	0.108337
-0.458374	0.109253
-0.783691	0.110779
-0.935364	0.11322
-0.889587	0.116272
-0.713806	0.119324
-0.431824	0.12207
-0.111389	0.124207
0.245972	0.126648
0.578613	0.128784
0.812988	0.1297
0.86792	0.1297
0.758972	0.129089
0.536194	0.127563
0.246277	0.126038
-0.0262451	0.124817
-0.258484	0.123596
-0.402222	0.122375
-0.471497	0.12085
-0.446167	0.119324
-0.37262	0.118103
-0.305176	0.117493
-0.231934	0.117798
-0.149231	0.118713
-0.0863647	0.119629
-0.0564575	0.119629
-0.0466919	0.119019
-0.012207	0.118408
0.0479126	0.118408
0.0939941	0.119629
0.132751	0.121765
0.176697	0.122681
0.205078	0.12207
0.20874	0.121765
0.187378	0.122681
0.158691	0.124817
0.126343	0.126648
0.100403	0.127563
0.0604248	0.127869
0.0161743	0.129089
-0.0244141	0.13031
-0.0683594	0.131531
-0.0918579	0.132446
-0.0939941	0.133972
-0.0961304	0.136719
-0.0964355	0.138855
-0.104675	0.140076
-0.11261	0.140991
-0.0964355	0.142517
-0.0634766	0.144348
-0.0384521	0.146484
-0.0247192	0.149536
-0.00213623	0.153503
0.0280762	0.157471
0.065918	0.161133
0.0964355	0.163879
0.111389	0.166016
0.126343	0.167542
0.128479	0.169067
0.0891113	0.169678
0.0384521	0.169067
-0.0109863	0.167542
-0.0582886	0.16571
-0.0805664	0.164185
-0.102844	0.163269
-0.129395	0.162964
-0.113831	0.164795
-0.0549316	0.168762
0.00488281	0.17395
0.0332642	0.178528
0.0524902	0.182495
0.0582886	0.187683
0.0531006	0.192566
0.0271606	0.195007
-0.00427246	0.195313
-0.022583	0.194092
-0.0219727	0.19165
-0.0106812	0.188599
-0.00610352	0.184937
-0.0247192	0.180359
-0.0531006	0.175171
-0.03479	0.170898
0.00671387	0.167542
0.0466919	0.16449
0.0778198	0.160522
0.111694	0.155029
0.128784	0.148621
0.146484	0.142517
0.140686	0.135498
0.0463867	0.127258
-0.104675	0.118103
-0.204163	0.108948
-0.238342	0.0991821
-0.210266	0.088501
-0.201721	0.078125
-0.231018	0.0686646
-0.0982666	0.0601196
0.150452	0.0515747
0.310669	0.043335
0.263977	0.0350952
0.0720215	0.0271606
-0.112915	0.0195313
-0.166016	0.0125122
-0.148926	0.00610352
-0.113831	0.0012207
-0.108643	-0.00366211
-0.015564	-0.00946045
0.223694	-0.015564
0.544128	-0.0216675
0.652466	-0.0265503
0.350647	-0.0296021
-0.0830078	-0.0323486
-0.325012	-0.0363159
-0.426331	-0.0405884
-0.54657	-0.0439453
-0.699463	-0.0469971
-0.772095	-0.0494385
-0.608215	-0.0521851
0.140381	-0.055542
1.12793	-0.0598145
1.64764	-0.0631714
1.46942	-0.0662231
0.778809	-0.0695801
-0.102234	-0.072937
-0.775146	-0.0747681
-1.06812	-0.0759888
-0.984192	-0.0772095
-0.70282	-0.0790405
-0.409241	-0.0808716
-0.159607	-0.0820923
0.0543213	-0.0830078
0.188599	-0.0839233
0.24353	-0.085144
0.282898	-0.0869751
0.321045	-0.088501
0.335999	-0.090332
0.306091	-0.0924683
0.211487	-0.0939941
0.0616455	-0.0949097
-0.0881958	-0.09552
-0.206909	-0.0973511
-0.303955	-0.0994873
-0.334167	-0.101318
-0.286865	-0.103149
-0.187378	-0.10437
-0.113525	-0.105286
-0.0271606	-0.106201
0.098877	-0.107117
0.222168	-0.108643
0.329895	-0.110474
0.369263	-0.112
0.338745	-0.11322
0.269165	-0.114441
0.179138	-0.115356
0.0378418	-0.117188
-0.0790405	-0.119629
-0.159607	-0.122681
-0.203857	-0.124817
-0.254822	-0.125732
-0.263062	-0.126038
-0.209961	-0.125427
-0.119934	-0.124207
-0.0527954	-0.12207
0.000915527	-0.118103
0.0701904	-0.112915
0.101013	-0.108032
0.0906372	-0.10376
0.0421143	-0.100098
0.00946045	-0.0973511
-0.0244141	-0.0958252
-0.0109863	-0.0961304
0.00427246	-0.0979614
0.0238037	-0.101929
0.00427246	-0.106506
-0.0210571	-0.109558
-0.0723267	-0.111389
-0.0985718	-0.112
-0.0656128	-0.112
0.000305176	-0.110779
0.0100708	-0.108337
-0.0201416	-0.104675
-0.00946045	-0.100403
0.0170898	-0.0964355
0.0265503	-0.0933838
0.0170898	-0.0918579
0.03479	-0.0918579
0.0360107	-0.093689
0.0238037	-0.0964355
0.020752	-0.100403
0.071106	-0.105286
0.112915	-0.110779
0.0805664	-0.117798
0.00152588	-0.125732
-0.0488281	-0.135498
-0.0585938	-0.14679
-0.0405884	-0.158386
-0.00183105	-0.169373
0.0390625	-0.179749
0.0747681	-0.190125
0.0778198	-0.200195
0.0558472	-0.209961
0.0228882	-0.219727
0.027771	-0.229187
0.0234985	-0.238037
-0.00305176	-0.245361
-0.0445557	-0.252686
-0.0796509	-0.260315
-0.123901	-0.266724
-0.15564	-0.273743
-0.119629	-0.281372
-0.0500488	-0.287476
0.0204468	-0.292053
0.0469971	-0.296021
0.0439453	-0.299072
0.0363159	-0.301208
0.0241089	-0.30304
-0.00427246	-0.30426
-0.0424194	-0.305176
-0.0564575	-0.306091
-0.0411987	-0.307617
-0.015564	-0.310059
-0.0140381	-0.315552
0.00549316	-0.324402
0.0546265	-0.335999
0.0921631	-0.349121
0.0897217	-0.361633
0.0619507	-0.37262
0.0515747	-0.380554
0.0238037	-0.383606
-0.00549316	-0.378113
-0.0268555	-0.358582
-0.00976563	-0.32074
-0.00823975	-0.263672
-0.0143433	-0.187988
-0.0256348	-0.0973511
-0.0228882	0.00579834
-0.0457764	0.118408
-0.0924683	0.237427
-0.408325	0.356445
-0.547485	0.467834
-0.0265503	0.559387
0.653076	0.617371
1.0379	0.634155
0.87616	0.605774
0.367432	0.534058
-0.169067	0.422668
-0.534363	0.279236
-0.620117	0.114746
-0.480652	-0.0598145
-0.254517	-0.231628
-0.0726318	-0.388489
0.0384521	-0.519104
0.0692749	-0.615234
-0.0140381	-0.674133
-0.180359	-0.697021
-0.353088	-0.688171
-0.440063	-0.655823
-0.465088	-0.609131
-0.402527	-0.558167
-0.186768	-0.509644
0.234985	-0.46875
0.724487	-0.438843
1.09924	-0.418701
1.31622	-0.405884
1.33667	-0.39978
1.01501	-0.39978
0.374146	-0.404053
-0.341797	-0.408936
-0.94696	-0.413513
-1.30737	-0.418396
-1.30829	-0.422058
-1.38519	-0.424194
-1.37299	-0.42511
-0.856934	-0.42511
-0.186157	-0.423889
0.453186	-0.421448
1.39282	-0.418091
1.96045	-0.415344
1.66473	-0.413208
0.896912	-0.411072
0.145569	-0.409546
-0.458374	-0.409241
-0.906067	-0.40863
-1.091	-0.407715
-0.977783	-0.407104
-0.653992	-0.406494
-0.262451	-0.406494
0.0656128	-0.406189
0.274048	-0.405579
0.414734	-0.403748
0.517883	-0.401611
0.563354	-0.399475
0.518494	-0.398254
0.368652	-0.397949
0.167542	-0.397949
-0.0485229	-0.397949
-0.229797	-0.398254
-0.361328	-0.39917
-0.428772	-0.400085
-0.415955	-0.401306
-0.326538	-0.401306
-0.183411	-0.400696
-0.0274658	-0.400085
0.103455	-0.399475
0.197754	-0.397949
0.231934	-0.395813
0.218811	-0.393677
0.158691	-0.391235
0.0656128	-0.389709
-0.010376	-0.389404
-0.0292969	-0.39032
-0.0128174	-0.391235
-0.0134277	-0.391846
-0.0604248	-0.392761
-0.111694	-0.393066
-0.110474	-0.393372
-0.0683594	-0.394897
-0.015564	-0.395508
0.0469971	-0.394592
0.110779	-0.391846
0.141907	-0.388794
0.12207	-0.386047
0.0872803	-0.383911
0.0616455	-0.382385
0.0131226	-0.380554
-0.0631714	-0.378723
-0.123901	-0.376587
-0.157776	-0.374451
-0.148621	-0.37262
-0.115967	-0.370789
-0.0720215	-0.368652
-0.0296021	-0.366516
0.010376	-0.36438
0.0350952	-0.361633
0.0460815	-0.358276
0.0650024	-0.354004
0.0723267	-0.349121
0.0546265	-0.344849
0.0390625	-0.341492
0.03479	-0.337219
0.0332642	-0.332031
0.0106812	-0.327148
-0.0299072	-0.322266
-0.0531006	-0.317383
-0.0305176	-0.312805
0.0247192	-0.308228
0.067749	-0.303345
0.083313	-0.298767
0.0704956	-0.29541
0.0430298	-0.292664
0.0198364	-0.290222
0.00793457	-0.288086
0.00244141	-0.285339
-0.0363159	-0.282593
-0.0881958	-0.280762
-0.107727	-0.279541
-0.0723267	-0.278625
-0.0152588	-0.27832
0.0314331	-0.278015
0.0305176	-0.27771
0.0274658	-0.27832
0.0311279	-0.280151
0.0274658	-0.282593
-0.00152588	-0.285339
-0.0302124	-0.288391
-0.0524902	-0.292358
-0.0524902	-0.297852
-0.0460815	-0.303955
-0.0540161	-0.309753
-0.045166	-0.316162
-0.0418091	-0.323486
-0.0479126	-0.330505
-0.0622559	-0.337219
-0.0292969	-0.343628
0.0222778	-0.349731
0.0628662	-0.354919
0.0582886	-0.359802
0.0439453	-0.36377
0.0466919	-0.367432
0.0469971	-0.371704
0.0286865	-0.375977
0.0088501	-0.379944
0.0427246	-0.383301
0.0692749	-0.386353
0.083313	-0.389099
0.0708008	-0.391541
0.0515747	-0.393066
0.0271606	-0.393372
0.0177002	-0.392761
0.000305176	-0.392151
-0.0390625	-0.391846
-0.0860596	-0.392151
-0.138855	-0.392456
-0.179749	-0.392761
-0.220032	-0.393982
-0.253906	-0.396729
-0.2948	-0.401001
-0.3125	-0.404968
-0.2948	-0.407715
0.107422	-0.40863
0.816956	-0.40802
1.27197	-0.406494
1.21948	-0.404968
0.709534	-0.403748
-0.0637817	-0.401917
-0.737915	-0.39856
-1.0498	-0.394897
-0.993958	-0.392761
-0.687256	-0.391846
-0.353394	-0.39093
-0.116272	-0.39093
0.0524902	-0.391541
0.153198	-0.392761
0.209045	-0.394287
0.259705	-0.395203
0.346375	-0.394592
0.41748	-0.393372
0.387878	-0.392151
0.273438	-0.39093
0.12146	-0.389709
-0.0283813	-0.387878
-0.139465	-0.386353
-0.207214	-0.384216
-0.243835	-0.382385
-0.235596	-0.380554
-0.191345	-0.379639
-0.147095	-0.379333
-0.0964355	-0.378113
-0.0354004	-0.375977
0.0192261	-0.374451
0.0842285	-0.37262
0.15686	-0.370178
0.193176	-0.367432
0.169373	-0.364685
0.109253	-0.363159
0.0540161	-0.362244
0.0390625	-0.361633
0.00549316	-0.361633
-0.0686646	-0.361938
-0.124817	-0.361938
-0.158386	-0.361938
-0.160522	-0.362549
-0.128479	-0.36438
-0.0683594	-0.366821
-0.00549316	-0.368958
0.0418091	-0.369568
0.0674438	-0.368042
0.0671387	-0.364685
0.0558472	-0.361328
0.0460815	-0.357971
0.0323486	-0.354919
0.00274658	-0.350647
-0.0134277	-0.345764
0.00274658	-0.340576
0.0372314	-0.335388
0.0561523	-0.329285
0.0457764	-0.323181
0.0292969	-0.317688
0.00305176	-0.313416
-0.0244141	-0.310059
-0.0421143	-0.307312
-0.0537109	-0.305176
-0.0488281	-0.30365
-0.0161743	-0.303345
0.00854492	-0.303345
-0.00701904	-0.30365
-0.0320435	-0.304565
-0.0512695	-0.305481
-0.0567627	-0.306091
-0.0616455	-0.305481
-0.043335	-0.302734
0.00854492	-0.298462
0.071106	-0.292664
0.104675	-0.286255
0.0979614	-0.280762
0.0921631	-0.276489
0.0875854	-0.274048
0.0839233	-0.274353
0.032959	-0.276184
-0.0314331	-0.279236
-0.0567627	-0.284119
-0.0479126	-0.291443
-0.0350952	-0.300598
-0.0479126	-0.311279
-0.0592041	-0.322266
-0.0839233	-0.332336
-0.0894165	-0.341797
-0.0866699	-0.349731
-0.0546265	-0.357666
0.00732422	-0.365906
0.0601196	-0.374451
0.0967407	-0.382996
0.102844	-0.390015
0.0982666	-0.395508
0.0637817	-0.401001
0.00732422	-0.406494
-0.0430298	-0.411377
-0.0686646	-0.415039
-0.0524902	-0.41626
-0.020752	-0.41626
-0.0012207	-0.415344
0.00640869	-0.413513
0.00488281	-0.411682
0.00152588	-0.409241
-0.000610352	-0.405884
-0.0115967	-0.402832
-0.0286865	-0.400696
-0.0482178	-0.39978
-0.0387573	-0.401001
-0.00396729	-0.404053
0.0195313	-0.409851
0.027771	-0.418396
0.0262451	-0.429382
0.0357056	-0.439758
0.0585938	-0.447998
0.0845337	-0.453491
0.0881958	-0.455322
0.0524902	-0.451355
0.0152588	-0.436707
-0.00610352	-0.408325
-0.0210571	-0.361633
-0.0570679	-0.294495
-0.0805664	-0.208435
-0.0787354	-0.107422
-0.0888062	0.00427246
-0.106812	0.124512
-0.12207	0.250854
-0.121765	0.376587
-0.0817871	0.492554
-0.0128174	0.585938
0.06073	0.643311
0.115662	0.656128
0.160522	0.621643
0.189819	0.540161
0.201416	0.415649
0.203247	0.256958
0.196228	0.0769043
0.174866	-0.110168
0.116882	-0.290222
0.0219727	-0.451965
-0.107422	-0.584106
-0.276489	-0.677795
-0.445251	-0.72937
-0.594177	-0.741272
-0.71991	-0.720215
-0.826721	-0.675354
-0.791016	-0.618591
-0.395508	-0.559998
0.315247	-0.506897
1.07483	-0.463257
1.62109	-0.430908
1.81152	-0.410156
1.60492	-0.39978
1.04034	-0.397034
0.275269	-0.398865
-0.491333	-0.402222
-1.12457	-0.405579
-1.52618	-0.407715
-1.66565	-0.408325
-1.56128	-0.40741
-1.22223	-0.405884
-0.681763	-0.403748
-0.00183105	-0.401001
0.663757	-0.397644
1.15173	-0.394897
1.3681	-0.391235
1.26099	-0.387268
0.900574	-0.382996
0.421448	-0.378723
-0.0259399	-0.375671
-0.350647	-0.374146
-0.556641	-0.37323
-0.655823	-0.372009
-0.645752	-0.370483
-0.526733	-0.369263
-0.324707	-0.368347
-0.0808716	-0.368652
0.180969	-0.370178
0.433044	-0.370178
0.597839	-0.368958
0.617065	-0.367737
0.485229	-0.366211
0.255127	-0.365601
-0.0106812	-0.365295
-0.22522	-0.362854
-0.353394	-0.357971
-0.386047	-0.353088
-0.380859	-0.349121
-0.352173	-0.346375
-0.270691	-0.344238
-0.151062	-0.340271
-0.0378418	-0.335083
0.0366211	-0.3302
0.0976563	-0.326233
0.137634	-0.323181
0.125122	-0.320435
0.0543213	-0.318298
0.00915527	-0.316467
-0.0228882	-0.314941
-0.0512695	-0.31311
-0.0418091	-0.31189
0.0161743	-0.311584
0.0888062	-0.311279
0.139771	-0.310974
0.172424	-0.310059
0.191345	-0.307922
0.186157	-0.305481
0.133972	-0.302734
0.0445557	-0.299072
-0.039978	-0.29541
-0.093689	-0.291748
-0.136719	-0.288086
-0.180359	-0.284424
-0.196533	-0.281372
-0.167542	-0.279846
-0.115662	-0.277405
-0.0720215	-0.273743
-0.0436401	-0.270386
-0.0216675	-0.267944
-0.00823975	-0.265503
0.00854492	-0.261841
0.0219727	-0.257263
0.022583	-0.251465
0.0161743	-0.244751
0.0228882	-0.238953
0.0634766	-0.233459
0.104675	-0.227966
0.114441	-0.222473
0.118103	-0.21637
0.098877	-0.209961
0.0405884	-0.204468
-0.00793457	-0.199585
-0.00915527	-0.195007
-0.00183105	-0.19043
0.00244141	-0.186157
0.0088501	-0.18219
0.000915527	-0.178833
0.000915527	-0.175476
0.0119019	-0.172424
0.0125122	-0.169678
0.0134277	-0.166931
0.0195313	-0.163574
0.0442505	-0.159302
0.0778198	-0.153809
0.0631714	-0.148621
0.0341797	-0.143127
0.0216675	-0.138245
-0.00183105	-0.134888
-0.0228882	-0.133057
-0.0680542	-0.131836
-0.150146	-0.13031
-0.19165	-0.129089
-0.158081	-0.1297
-0.093689	-0.13092
-0.0439453	-0.133362
-0.0314331	-0.137024
-0.0280762	-0.140076
-0.0164795	-0.142517
-0.00518799	-0.145569
0.0167847	-0.149841
0.032959	-0.155334
0.03479	-0.161743
0.0454712	-0.169373
0.0732422	-0.177612
0.0863647	-0.185547
0.0765991	-0.193176
0.0646973	-0.201416
0.0323486	-0.209351
0.00518799	-0.216675
0.0100708	-0.222168
0	-0.22644
-0.00579834	-0.229797
-0.0305176	-0.232849
-0.0366211	-0.235596
-0.0286865	-0.237427
-0.0466919	-0.238037
-0.0296021	-0.238037
-0.0119019	-0.237732
0.00427246	-0.237427
-0.010376	-0.237122
0.0131226	-0.236511
0.0286865	-0.236816
0.0280762	-0.238037
-0.000915527	-0.239868
-0.0250244	-0.242004
-0.0656128	-0.244141
-0.125427	-0.246277
-0.205078	-0.248413
-0.319519	-0.248718
-0.417786	-0.247803
-0.321045	-0.246277
0.283508	-0.243835
0.950928	-0.240784
1.24756	-0.237122
1.00403	-0.233154
0.332947	-0.229187
-0.386353	-0.22583
-0.817261	-0.223694
-0.929871	-0.222778
-0.756531	-0.223389
-0.471191	-0.224304
-0.204468	-0.22522
0.0524902	-0.22644
0.283813	-0.227051
0.419312	-0.22583
0.430298	-0.223083
0.384827	-0.220032
0.307922	-0.217285
0.192871	-0.214844
0.0292969	-0.212097
-0.119629	-0.20813
-0.261841	-0.203857
-0.361328	-0.2005
-0.422974	-0.198059
-0.399475	-0.196228
-0.293579	-0.194702
-0.128479	-0.193176
0.0531006	-0.19165
0.222473	-0.189209
0.335083	-0.185547
0.369568	-0.18219
0.336304	-0.180359
0.242004	-0.180054
0.131836	-0.180054
0.0372314	-0.179443
-0.0170898	-0.178833
-0.0393677	-0.178528
-0.050354	-0.178833
-0.0775146	-0.179749
-0.105896	-0.180359
-0.126343	-0.180969
-0.137634	-0.181274
-0.139771	-0.180969
-0.115662	-0.179443
-0.0732422	-0.176086
-0.0100708	-0.173645
0.0262451	-0.172424
0.0524902	-0.171204
0.0698853	-0.169983
0.0756836	-0.169067
0.0598145	-0.169067
0.0387573	-0.170288
0.010376	-0.170898
-0.0167847	-0.171814
-0.0286865	-0.172424
-0.0112915	-0.173035
0.0146484	-0.17395
0.039978	-0.174866
0.0540161	-0.175781
0.0650024	-0.175476
-0.022583	-0.172424
-0.178223	-0.167847
-0.158386	-0.163879
-0.0244141	-0.161743
0.0250244	-0.160217
-0.00152588	-0.157471
-0.0106812	-0.153198
-0.0476074	-0.148926
-0.088501	-0.146484
-0.0827026	-0.146179
-0.0338745	-0.146179
0.0189209	-0.144348
0.0610352	-0.140686
0.0933838	-0.136719
0.0946045	-0.132446
0.0808716	-0.127258
0.0668335	-0.121155
0.0592041	-0.115662
0.0384521	-0.110474
0.00671387	-0.105896
-0.0247192	-0.101929
-0.0570679	-0.0991821
-0.0622559	-0.0979614
-0.0552368	-0.0970459
-0.0408936	-0.0949097
-0.0140381	-0.0927734
0.0161743	-0.0906372
0.0552368	-0.0881958
0.0683594	-0.0854492
0.0567627	-0.0820923
0.0335693	-0.0784302
0.0280762	-0.0750732
0.032959	-0.072937
0.0442505	-0.0726318
0.0598145	-0.0741577
0.0738525	-0.0772095
0.0701904	-0.0820923
0.0326538	-0.0881958
-0.0320435	-0.0942993
-0.101929	-0.100098
-0.151367	-0.106812
-0.172729	-0.114746
-0.149536	-0.124207
-0.09552	-0.134888
-0.0302124	-0.144653
0.0125122	-0.152283
0.0354004	-0.160217
0.0372314	-0.169373
0.0427246	-0.178833
0.0335693	-0.186462
0.038147	-0.19165
0.0701904	-0.194397
0.0790405	-0.195313
0.0646973	-0.195313
0.0421143	-0.195007
0.0128174	-0.193787
-0.00793457	-0.19165
-0.0344849	-0.189209
-0.0436401	-0.187073
-0.0695801	-0.186157
-0.0622559	-0.187988
-0.0653076	-0.19104
-0.0686646	-0.195313
-0.0759888	-0.198669
-0.0592041	-0.19928
-0.0167847	-0.197754
0.0198364	-0.196838
0.0231934	-0.197754
0.0405884	-0.2005
0.062561	-0.204163
0.0762939	-0.20752
0.0793457	-0.209656
0.0717163	-0.210266
0.0653076	-0.20752
0.0631714	-0.202637
0.0564575	-0.194397
0.0637817	-0.176697
0.0802612	-0.144348
0.112305	-0.0939941
0.117493	-0.0250244
0.0854492	0.0592041
0.0231934	0.15625
-0.0842285	0.263367
-0.191956	0.378418
-0.273743	0.498352
-0.273132	0.617981
-0.210266	0.727539
-0.157776	0.814819
-0.118408	0.866394
-0.0741577	0.873108
-0.00915527	0.832825
0.090332	0.74707
0.190735	0.618286
0.274048	0.455017
0.30365	0.269165
0.255737	0.0759888
0.125427	-0.109253
-0.0592041	-0.271912
-0.236816	-0.401306
-0.383606	-0.490723
-0.488892	-0.537109
-0.469971	-0.542297
-0.368042	-0.513306
-0.301514	-0.458984
-0.241394	-0.392151
0.0292969	-0.325012
0.549316	-0.267029
1.1264	-0.222473
1.50452	-0.192566
1.521	-0.176697
1.13556	-0.170898
0.432434	-0.171204
-0.413208	-0.174255
-1.11389	-0.177612
-1.49658	-0.181885
-1.5686	-0.185547
-1.43372	-0.186157
-1.13342	-0.184021
-0.696106	-0.180664
-0.129395	-0.177002
0.474854	-0.17334
0.971069	-0.170898
1.24695	-0.168457
1.25519	-0.166321
1.03027	-0.164185
0.609436	-0.161438
0.129395	-0.158386
-0.275574	-0.15564
-0.510559	-0.152588
-0.592651	-0.149841
-0.5896	-0.145874
-0.531006	-0.140991
-0.438843	-0.137634
-0.280457	-0.135498
-0.0769043	-0.133057
0.180664	-0.13031
0.412903	-0.128174
0.550537	-0.126343
0.53009	-0.124817
0.421143	-0.124512
0.234985	-0.122986
0.00274658	-0.12085
-0.222473	-0.119019
-0.354919	-0.118408
-0.39856	-0.118408
-0.369873	-0.119019
-0.26947	-0.119629
-0.0985718	-0.119934
0.0634766	-0.120239
0.161133	-0.120544
0.17334	-0.119934
0.157471	-0.118713
0.120544	-0.117493
0.0494385	-0.115967
-0.0341797	-0.11322
-0.0930786	-0.109558
-0.115662	-0.10437
-0.0961304	-0.0982666
-0.0283813	-0.0921631
0.0415039	-0.0869751
0.0921631	-0.0820923
0.137329	-0.0784302
0.133972	-0.0747681
0.0982666	-0.0704956
0.0686646	-0.0665283
0.0732422	-0.0634766
0.104675	-0.0601196
0.0527954	-0.0567627
-0.145874	-0.0540161
-0.330811	-0.0518799
-0.348206	-0.0497437
-0.236206	-0.0476074
-0.13855	-0.045166
-0.0411987	-0.0421143
0.0787354	-0.0384521
0.147095	-0.03479
0.126953	-0.0302124
0.109558	-0.0244141
0.146484	-0.0186157
0.138855	-0.0131226
0.0790405	-0.00732422
0.0271606	-0.0012207
0.0125122	0.00549316
-0.0128174	0.0125122
-0.0335693	0.0192261
-0.0509644	0.0250244
-0.0875854	0.0305176
-0.15686	0.0360107
-0.172729	0.0421143
-0.0784302	0.0482178
0.0366211	0.0543213
0.114136	0.0598145
0.166626	0.0640869
0.202332	0.0671387
0.180359	0.0704956
0.0991821	0.0744629
0.0524902	0.0784302
0.0396729	0.0817871
-0.0216675	0.0848389
-0.0686646	0.0894165
-0.0509644	0.0946045
-0.114136	0.100098
-0.191345	0.105591
-0.198669	0.110779
-0.0772095	0.115356
0.071106	0.119019
0.128479	0.12207
0.113831	0.123291
0.0796509	0.12207
0.0286865	0.119019
-0.0320435	0.115662
-0.039978	0.111389
-0.0317383	0.105896
-0.0634766	0.0997925
-0.111694	0.0927734
-0.0756836	0.0848389
-0.0646973	0.0756836
-0.0946045	0.0668335
-0.0836182	0.0582886
-0.0274658	0.0500488
0.000915527	0.0421143
-0.0100708	0.0357056
0.0479126	0.0302124
0.111084	0.0256348
0.119629	0.0216675
0.108948	0.0167847
0.102234	0.0119019
0.0610352	0.00946045
0.0183105	0.0088501
0.00610352	0.00762939
-0.0119019	0.00518799
-0.0454712	0.00274658
-0.0146484	0.000610352
-0.0112915	-0.0012207
-0.0210571	-0.00244141
0.0106812	-0.00366211
0.045166	-0.00488281
0.0317383	-0.00640869
-0.0131226	-0.00793457
0.000915527	-0.0088501
-0.010376	-0.010376
-0.0387573	-0.0125122
-0.0476074	-0.0146484
-0.0531006	-0.015564
-0.0778198	-0.015564
-0.098877	-0.0149536
-0.11261	-0.0140381
-0.172729	-0.0143433
-0.259705	-0.015564
-0.338135	-0.0164795
-0.0106812	-0.0170898
0.631104	-0.0180054
1.11053	-0.0186157
1.09344	-0.0201416
0.577393	-0.0216675
-0.20813	-0.0228882
-0.780945	-0.022583
-1.00098	-0.0216675
-0.904236	-0.020752
-0.559998	-0.0195313
-0.174866	-0.0183105
0.122681	-0.0177002
0.340576	-0.0161743
0.47699	-0.0131226
0.471497	-0.00946045
0.329285	-0.00610352
0.170288	-0.00213623
-0.0259399	0.00244141
-0.209351	0.00671387
-0.285339	0.010376
-0.264587	0.0143433
-0.250854	0.0183105
-0.22644	0.0219727
-0.116577	0.0253296
-0.00610352	0.0280762
0.0726318	0.0299072
0.1651	0.0302124
0.263672	0.0296021
0.29541	0.0283813
0.267334	0.0280762
0.224609	0.0280762
0.161133	0.0280762
0.0485229	0.0280762
0	0.027771
-0.0201416	0.0280762
-0.0518799	0.0289917
-0.0704956	0.0308228
-0.103455	0.0326538
-0.161133	0.0338745
-0.223999	0.03479
-0.209656	0.0354004
-0.158997	0.0350952
-0.110779	0.0344849
-0.0454712	0.03479
0.0180054	0.0357056
0.0274658	0.0363159
0.0302124	0.0369263
0.0708008	0.0378418
0.0973511	0.0390625
0.057373	0.0405884
0.0180054	0.0430298
-0.0250244	0.0454712
-0.0674438	0.0463867
-0.0595093	0.0457764
-0.03479	0.0454712
-0.0241089	0.0442505
-0.00610352	0.0430298
0.0323486	0.0421143
0.0448608	0.0405884
0.0396729	0.0387573
0.0671387	0.0366211
0.0744629	0.03479
0.0537109	0.0335693
0.0613403	0.0317383
0.0653076	0.0289917
0.0680542	0.0256348
0.0640869	0.0222778
0.0866699	0.0198364
0.0802612	0.0186157
0.0308228	0.0195313
0.00671387	0.0216675
-0.0393677	0.0238037
-0.090332	0.0253296
-0.098877	0.027771
-0.0720215	0.0320435
-0.0595093	0.0366211
-0.0802612	0.0408936
-0.0317383	0.0445557
-0.0247192	0.0463867
-0.0515747	0.0469971
-0.0424194	0.0460815
-0.00366211	0.0445557
-0.00579834	0.0430298
-0.0170898	0.0415039
0.000915527	0.0393677
-0.000610352	0.0363159
-0.0088501	0.0332642
0.0216675	0.0311279
0.0692749	0.0299072
0.09552	0.0296021
0.105286	0.0299072
0.0930786	0.0308228
0.067749	0.032959
-0.015564	0.0360107
-0.109253	0.039978
-0.177917	0.0454712
-0.266113	0.0518799
-0.391541	0.0585938
-0.308533	0.0650024
-0.0283813	0.071106
0.326233	0.0769043
0.527344	0.0817871
0.41626	0.0863647
0.0808716	0.090332
-0.111694	0.0930786
-0.0750732	0.0939941
0.00183105	0.0939941
0.0860596	0.09552
0.143127	0.0982666
0.135193	0.100708
0.0537109	0.102844
-0.0735474	0.107727
-0.152588	0.114441
-0.196228	0.119934
-0.209045	0.124207
-0.166931	0.127563
-0.0836182	0.13031
-0.043335	0.132446
-0.0680542	0.134277
-0.0491333	0.135498
-0.0125122	0.136719
-0.010376	0.137024
-0.0216675	0.136108
-0.0979614	0.134583
0.150757	0.133362
0.488281	0.132141
0.635681	0.1297
0.431519	0.125732
-0.00183105	0.119629
-0.562439	0.111389
-0.80719	0.101929
-0.505676	0.0918579
-0.0259399	0.0814819
0.320435	0.0717163
0.43396	0.062561
0.323486	0.0546265
0.0320435	0.0482178
-0.264587	0.0436401
-0.1474	0.0402832
0.0457764	0.0369263
0.12085	0.0332642
0.0656128	0.0308228
-0.0115967	0.0292969
-0.0744629	0.0283813
-0.140686	0.0268555
-0.0927734	0.0253296
-0.0106812	0.0238037
0.0137329	0.0219727
0.012207	0.0201416
0.0567627	0.0180054
0.110779	0.0167847
0.119019	0.0164795
0.108643	0.0167847
0.0897217	0.0177002
0.0219727	0.0183105
-0.0756836	0.0192261
-0.145569	0.0213623
-0.163879	0.0241089
-0.142517	0.0259399
-0.103455	0.0250244
-0.0387573	0.0210571
0.0442505	0.0152588
0.0915527	0.00946045
0.09552	0.00518799
0.0714111	0.00305176
0.0640869	0.00396729
0.0601196	0.00976563
0.0421143	0.0219727
0.00915527	0.0442505
0.00671387	0.0811768
0.0213623	0.136719
0.0250244	0.209656
0.0131226	0.297546
-0.017395	0.396729
-0.0512695	0.50354
-0.105286	0.614929
-0.150452	0.728455
-0.181274	0.838928
-0.153809	0.935364
-0.0631714	1.00708
0.0469971	1.04218
0.0869751	1.03241
0.124817	0.975037
0.196533	0.873718
0.262146	0.735168
0.236206	0.568542
0.158997	0.386658
0.0814819	0.204163
-0.0698853	0.0344849
-0.214844	-0.111694
-0.262451	-0.224304
-0.262756	-0.297241
-0.305786	-0.329895
-0.315857	-0.325012
-0.368347	-0.289612
-0.541992	-0.233765
-0.569458	-0.169067
-0.14801	-0.106201
0.579834	-0.0527954
1.24451	-0.012207
1.57257	0.0149536
1.51367	0.0308228
1.05347	0.0387573
0.318604	0.0396729
-0.433655	0.0369263
-1.00616	0.0332642
-1.32782	0.0305176
-1.4328	0.0280762
-1.28906	0.0268555
-0.979309	0.0274658
-0.567627	0.0302124
-0.0735474	0.0338745
0.410767	0.0369263
0.772705	0.0402832
0.98053	0.0439453
1.07239	0.0473022
0.904846	0.0506592
0.489807	0.0531006
0.0662231	0.055542
-0.249329	0.0576782
-0.421448	0.0579834
-0.486755	0.0588989
-0.452576	0.06073
-0.426636	0.0622559
-0.382996	0.0628662
-0.228577	0.0616455
0.00366211	0.06073
0.266113	0.0604248
0.501099	0.0601196
0.6427	0.0588989
0.562439	0.0588989
0.351563	0.06073
0.128174	0.0628662
-0.108032	0.0650024
-0.307312	0.0674438
-0.403748	0.0692749
-0.383911	0.0708008
-0.345154	0.0726318
-0.283203	0.0735474
-0.148926	0.0744629
-0.0506592	0.0744629
0.0131226	0.0738525
0.0823975	0.0735474
0.137939	0.0744629
0.122681	0.0756836
0.0744629	0.0772095
0.0482178	0.0796509
0.000305176	0.0823975
-0.0274658	0.085144
-0.0231934	0.0875854
0.010376	0.0897217
0.0286865	0.0921631
0.0643921	0.09552
0.127258	0.0991821
0.179749	0.102539
0.202332	0.105286
0.195618	0.108643
0.187073	0.112915
0.112	0.116882
-0.00976563	0.119934
-0.109558	0.12207
-0.166016	0.123596
-0.188293	0.124817
-0.19989	0.125732
-0.173035	0.127563
-0.134888	0.130005
-0.0930786	0.132751
-0.0650024	0.136108
-0.0558472	0.141296
-0.0787354	0.147095
-0.0808716	0.153503
-0.0457764	0.161438
0.0189209	0.169067
0.0482178	0.176392
0.0622559	0.1828
0.0656128	0.189209
0.0738525	0.196228
0.0790405	0.202637
0.0619507	0.207825
0.0463867	0.212097
0.0509644	0.215759
0.0537109	0.219727
0.0488281	0.223389
0.0558472	0.226135
0.0286865	0.227661
0.0131226	0.227966
0.0112915	0.228882
0.0189209	0.231018
0.022583	0.234375
0.0186157	0.239563
-0.00335693	0.245667
-0.0259399	0.251465
-0.0469971	0.257263
-0.0518799	0.263977
-0.0338745	0.271606
-0.0549316	0.279236
-0.101013	0.284424
-0.135498	0.287476
-0.0537109	0.289001
0.0509644	0.289917
0.110168	0.289612
0.126038	0.28656
0.106812	0.281067
0.0463867	0.274963
-0.0167847	0.269165
-0.0445557	0.263367
-0.0634766	0.257568
-0.0164795	0.25177
-0.0222778	0.245667
-0.119019	0.238953
-0.189209	0.231018
-0.157776	0.223083
-0.0656128	0.216064
-0.0100708	0.209351
0.00183105	0.202637
-0.0140381	0.195313
-0.00976563	0.187378
-0.017395	0.179138
-0.00946045	0.171204
0.0152588	0.163269
0.0601196	0.155029
0.117798	0.14679
0.103149	0.139771
0.0506592	0.135193
0.0186157	0.13092
-0.0238037	0.126953
0.0146484	0.123901
0.124817	0.12207
0.223389	0.121765
0.268555	0.122986
0.235596	0.124817
0.123596	0.128174
-0.0271606	0.132751
-0.110168	0.136414
-0.128174	0.136719
-0.12085	0.135498
-0.144348	0.133667
-0.179443	0.132446
-0.181274	0.131836
-0.159912	0.13031
-0.17395	0.127869
-0.362854	0.124817
-0.242004	0.121765
0.372009	0.119934
0.959473	0.120239
1.08307	0.121765
0.651245	0.123901
-0.0482178	0.126953
-0.576477	0.129089
-0.759583	0.131226
-0.641174	0.132751
-0.390625	0.134583
-0.185242	0.137024
-0.039978	0.138245
0.0665283	0.137634
0.0912476	0.136719
0.0906372	0.135193
0.0949097	0.133057
0.126648	0.132141
0.137329	0.132751
0.148926	0.135498
0.108032	0.13855
-0.00183105	0.141296
-0.102234	0.144653
-0.127258	0.148315
-0.123596	0.151672
-0.148621	0.154419
-0.129395	0.15625
-0.0540161	0.157776
-0.00762939	0.157166
0	0.155334
0.0241089	0.153198
0.067749	0.151062
0.0897217	0.149231
0.0708008	0.14801
0.0714111	0.1474
0.0961304	0.148926
0.108643	0.151062
0.0717163	0.153809
0.0628662	0.15686
0.0582886	0.160522
0.00518799	0.164185
-0.0219727	0.167542
0.0378418	0.171204
0.13031	0.174255
0.169373	0.177002
0.132141	0.178528
0.0497437	0.179138
-0.0823975	0.178528
-0.186462	0.176697
-0.193787	0.174255
-0.199585	0.171509
-0.230408	0.167542
-0.266724	0.162659
-0.243225	0.158691
-0.192566	0.158081
-0.151672	0.159607
-0.0427246	0.161438
0.0354004	0.163269
0.078125	0.166016
0.124512	0.169373
0.166016	0.173035
0.144348	0.176697
0.100098	0.180359
0.130615	0.183716
0.103149	0.185242
0.0531006	0.184326
0.0335693	0.18158
0.0942993	0.178223
0.072937	0.175171
0.000305176	0.172729
0.0448608	0.169983
0.0927734	0.166321
0.158386	0.162964
0.164795	0.160522
0.198975	0.159302
0.189209	0.159302
0.12085	0.161438
0.11322	0.164185
-0.0115967	0.166931
-0.17395	0.170288
-0.355835	0.17334
-0.424805	0.176392
-0.414734	0.178223
-0.410156	0.179138
-0.337524	0.178833
-0.223999	0.177917
-0.113525	0.176086
-0.0292969	0.174561
0.129089	0.17334
0.241394	0.17334
0.282898	0.174255
0.310364	0.175781
0.301208	0.178223
0.245667	0.181274
0.119629	0.183716
0.0390625	0.185242
-0.00549316	0.185547
-0.0408936	0.185242
-0.0280762	0.184937
-0.00396729	0.185852
-0.00793457	0.188599
-0.0360107	0.190125
0.0140381	0.190735
0.0268555	0.19043
-0.0439453	0.188904
-0.119629	0.187988
-0.204163	0.187988
-0.211487	0.187378
-0.204468	0.185852
-0.171509	0.184937
-0.0588989	0.184631
0.00762939	0.184631
0.107117	0.185852
0.140991	0.189514
0.135498	0.195313
0.0878906	0.202332
0.0296021	0.209351
0.0393677	0.215759
0.0241089	0.220947
0.0619507	0.22583
0.0924683	0.229797
0.157776	0.233459
0.188293	0.236816
0.145264	0.239258
0.147705	0.241699
0.0747681	0.243835
-0.0271606	0.245972
-0.115967	0.248718
-0.148315	0.25116
-0.190735	0.253906
-0.248108	0.256348
-0.213013	0.258179
-0.110779	0.26001
-0.0210571	0.262146
0.00946045	0.265503
0.0390625	0.26886
0.110474	0.272522
0.125427	0.275269
0.134583	0.276794
0.0814819	0.278015
0.0427246	0.278625
-0.0338745	0.278015
-0.067749	0.274963
-0.0567627	0.269775
-0.085144	0.262451
-0.0784302	0.254517
-0.0949097	0.245667
-0.0540161	0.236206
-0.015564	0.226746
-0.0100708	0.217285
-0.0088501	0.208435
-0.0402832	0.199585
-0.0576782	0.19104
-0.0750732	0.183105
-0.0662231	0.176697
-0.0192261	0.172424
0.0332642	0.169373
0.0952148	0.166626
0.0976563	0.163879
0.090332	0.161438
0.0817871	0.160217
0.0634766	0.159607
0.0717163	0.159302
0.0372314	0.158997
0.0259399	0.158997
-0.00244141	0.159302
-0.00976563	0.159912
-0.00976563	0.160522
0.000915527	0.161438
-0.0170898	0.163269
-0.0256348	0.165405
-0.0256348	0.167847
-0.0201416	0.170288
0.000610352	0.172424
0.0314331	0.172424
0.0338745	0.170288
0.0512695	0.164795
0.0552368	0.158081
0.0549316	0.151672
0.057373	0.1474
0.0894165	0.146179
0.123596	0.148621
0.116882	0.15686
0.0613403	0.175171
0.0332642	0.208435
-0.0125122	0.260315
-0.109863	0.3302
-0.170288	0.414124
-0.178833	0.508728
-0.1474	0.611267
-0.149841	0.719604
-0.105591	0.829773
-0.067749	0.93689
-0.0506592	1.03241
-0.0296021	1.10291
0.00915527	1.13708
0.0418091	1.12823
0.022583	1.07605
0.0430298	0.983276
0.0994873	0.856018
0.133057	0.70282
0.108032	0.534668
0.112	0.363159
0.0973511	0.200806
0.015564	0.0588989
-0.116577	-0.0537109
-0.210266	-0.130615
-0.257263	-0.169067
-0.323181	-0.172119
-0.411377	-0.1474
-0.472107	-0.10437
-0.443726	-0.0518799
-0.171204	0.00152588
0.319519	0.0491333
0.866699	0.0875854
1.18744	0.115356
1.17981	0.133362
0.922852	0.144043
0.464478	0.149536
-0.0857544	0.151062
-0.611267	0.150452
-0.916748	0.148621
-1.07635	0.14679
-1.08826	0.145264
-0.890198	0.144653
-0.563049	0.145264
-0.182495	0.14679
0.248108	0.148315
0.743713	0.149536
1.10413	0.149841
1.12244	0.149536
0.88501	0.149231
0.473328	0.149231
-0.0186157	0.149536
-0.435791	0.149841
-0.649414	0.149536
-0.699158	0.148926
-0.711975	0.149231
-0.620422	0.151062
-0.422058	0.154419
-0.143738	0.158691
0.178223	0.162354
0.524597	0.1651
0.66925	0.167847
0.609131	0.170593
0.445251	0.172424
0.206299	0.173645
-0.0387573	0.175171
-0.221252	0.175476
-0.26825	0.174866
-0.298767	0.173035
-0.299072	0.170898
-0.263672	0.171509
-0.217896	0.17395
-0.148315	0.176697
-0.0134277	0.179138
0.125122	0.181885
0.205383	0.184937
0.270691	0.187988
0.279541	0.190735
0.224915	0.193787
0.162659	0.196838
0.0900269	0.19928
-0.0195313	0.200806
-0.184631	0.201111
-0.231018	0.200806
-0.189209	0.200195
-0.137329	0.19989
-0.0756836	0.200195
-0.0180054	0.2005
0.0222778	0.200806
0.119324	0.201111
0.133667	0.201416
0.102844	0.202332
0.105286	0.204468
0.107422	0.20752
0.0646973	0.210571
0.038147	0.214844
0.0128174	0.219421
-0.0549316	0.223999
-0.101013	0.227966
-0.128479	0.230713
-0.191956	0.23407
-0.183411	0.238037
-0.154724	0.241089
-0.120239	0.24231
-0.0308228	0.24231
0.0628662	0.24231
0.0598145	0.243225
0.0320435	0.245361
0.0213623	0.249023
0.0274658	0.252991
0.0613403	0.256958
0.093689	0.262451
0.0686646	0.26947
0.0466919	0.277405
0.0305176	0.28595
-0.0131226	0.2948
-0.0253296	0.30304
-0.00488281	0.310974
0.0143433	0.318604
0.0466919	0.325012
0.0631714	0.3302
0.0283813	0.333252
-0.0012207	0.335693
0.0408936	0.336914
0.00701904	0.337524
-0.0112915	0.337524
-0.0289917	0.338135
-0.0241089	0.33905
-0.0509644	0.340881
0.00183105	0.343628
0.06073	0.346985
0.0650024	0.350952
0.0280762	0.354614
0.0119019	0.357666
0.00518799	0.359192
-0.00946045	0.358887
-0.0238037	0.35675
-0.0643921	0.351563
-0.0787354	0.345154
-0.118408	0.33783
-0.0775146	0.329895
-0.0234985	0.32196
-0.012207	0.313721
0.0283813	0.305481
0.0335693	0.296631
0.0363159	0.288696
0.0195313	0.281982
0.00579834	0.275574
0.0198364	0.26825
0.0265503	0.259399
0.0299072	0.249329
0.0109863	0.238953
-0.00457764	0.229187
0.0012207	0.219727
-0.00823975	0.211182
-0.0088501	0.204773
-0.0210571	0.200195
-0.00213623	0.195618
0.00823975	0.19165
0.00732422	0.189819
0.045166	0.190125
0.0604248	0.190125
0.0500488	0.189514
0.0195313	0.188904
-0.012207	0.188599
-0.0323486	0.187683
-0.0491333	0.186462
-0.0744629	0.184021
-0.133362	0.18158
-0.195007	0.178528
-0.234985	0.175171
-0.232239	0.171204
-0.278931	0.167542
-0.368042	0.16449
-0.442505	0.162048
-0.0119019	0.159912
0.890198	0.158081
1.59119	0.157166
1.62628	0.15686
0.986328	0.157471
0.0634766	0.158386
-0.656433	0.159302
-0.994263	0.160217
-1.05377	0.161133
-0.92926	0.161438
-0.725098	0.160828
-0.53009	0.159607
-0.270691	0.158386
-0.00427246	0.156555
0.203247	0.155334
0.397644	0.154114
0.488586	0.153198
0.516968	0.152893
0.481567	0.152588
0.401306	0.152893
0.327148	0.153503
0.198059	0.155029
0.0650024	0.156555
-0.0909424	0.158081
-0.232239	0.158997
-0.359497	0.158997
-0.441284	0.158997
-0.410461	0.158386
-0.328369	0.157776
-0.180054	0.156555
0.00640869	0.15564
0.161743	0.155334
0.293579	0.15564
0.340271	0.15625
0.314941	0.15686
0.232239	0.157471
0.110779	0.158691
-0.0125122	0.160217
-0.0942993	0.161743
-0.134888	0.162659
-0.171814	0.163269
-0.167847	0.162659
-0.122681	0.161438
-0.071106	0.159912
-0.0311279	0.157776
0.000915527	0.155334
0.0143433	0.151978
0.00946045	0.148315
0.0140381	0.145874
-0.0119019	0.144653
-0.027771	0.143127
-0.0466919	0.141907
-0.0656128	0.141602
-0.0448608	0.142822
-0.0201416	0.144958
-0.00946045	0.14679
0.00488281	0.148315
0.0280762	0.149536
0.0494385	0.150146
0.0744629	0.150452
0.0708008	0.149841
0.0915527	0.148315
0.111694	0.145874
0.0799561	0.142517
0.0576782	0.138855
0.0354004	0.135498
0	0.132446
-0.00518799	0.129395
-0.0180054	0.126038
-0.0531006	0.122681
-0.0506592	0.119934
-0.0494385	0.119019
-0.062561	0.117798
-0.0161743	0.115967
0.00701904	0.113525
0.00579834	0.110779
0.0286865	0.108643
0.0534058	0.107422
0.0787354	0.106812
0.0631714	0.105286
0.0134277	0.10376
-0.00427246	0.101929
-0.0448608	0.100708
-0.0704956	0.0991821
-0.0521851	0.0985718
-0.0650024	0.0991821
-0.0595093	0.100708
-0.0201416	0.102234
0.000305176	0.104065
-0.0396729	0.105286
-0.050354	0.105896
-0.00823975	0.105591
0.00732422	0.105591
0.027771	0.106201
0.0250244	0.106812
0.050354	0.106506
0.0640869	0.10437
0.0268555	0.101624
-0.0177002	0.0991821
-0.0476074	0.0976563
-0.0241089	0.0967407
0.0106812	0.0958252
0.0500488	0.0952148
0.0384521	0.0949097
0.00946045	0.0949097
-0.0231934	0.0964355
-0.0363159	0.098877
-0.0622559	0.102234
-0.0274658	0.105896
-0.00732422	0.109558
-0.133057	0.112915
-0.149231	0.115356
-0.101624	0.117493
-0.0262451	0.119019
0.0866699	0.120544
0.188904	0.122375
0.269775	0.123596
0.265198	0.124207
0.15564	0.124817
0.0128174	0.126038
-0.0344849	0.128174
-0.126648	0.13092
-0.00457764	0.132751
0.183411	0.134277
0.134277	0.135498
-0.038147	0.137634
-0.218811	0.139465
-0.367737	0.140991
-0.458984	0.142517
-0.514526	0.144348
-0.450439	0.145874
-0.218201	0.1474
0.128479	0.14801
0.463257	0.148621
0.679016	0.148926
0.731506	0.148926
0.583191	0.14679
0.293579	0.142212
0.032959	0.135498
-0.141907	0.127258
-0.248108	0.117798
-0.270386	0.108032
-0.202942	0.0976563
-0.1828	0.0869751
-0.209351	0.0765991
-0.161743	0.0665283
-0.112915	0.0564575
-0.108643	0.0466919
-0.0842285	0.038147
-0.0302124	0.0311279
0.0158691	0.0253296
0.0302124	0.0189209
0.0402832	0.012207
0.0601196	0.00549316
0.0762939	0.000305176
0.163269	-0.00274658
0.13092	-0.00549316
0.0463867	-0.00854492
0.0204468	-0.0106812
-0.00183105	-0.0106812
-0.062561	-0.00793457
-0.0628662	-0.00549316
-0.0134277	-0.00366211
-0.00488281	-0.00274658
0.000915527	-0.00244141
0.0289917	-0.00244141
0.0143433	-0.00335693
-0.0238037	-0.00488281
-0.00396729	-0.00762939
0.0161743	-0.0112915
0.0210571	-0.0161743
0.0772095	-0.0228882
0.137024	-0.0311279
0.0982666	-0.0390625
0.012207	-0.0445557
-0.0738525	-0.0463867
-0.166626	-0.0442505
-0.154419	-0.0360107
-0.0613403	-0.0198364
-0.0396729	0.0088501
-0.0393677	0.0527954
-0.0292969	0.114136
-0.0430298	0.191345
-0.0265503	0.281067
0.022583	0.379333
0.0308228	0.481873
0.0125122	0.587158
0.0372314	0.692139
0.0592041	0.790405
0.0732422	0.870361
0.143738	0.9198
0.1828	0.930786
0.125122	0.899353
0.0488281	0.825806
-0.0180054	0.716553
-0.0717163	0.579224
-0.0680542	0.421753
-0.0219727	0.254517
-0.0152588	0.0894165
-0.0628662	-0.0616455
-0.108643	-0.187378
-0.196228	-0.280762
-0.317688	-0.336914
-0.332031	-0.35675
-0.318909	-0.346375
-0.415649	-0.314636
-0.455322	-0.269775
-0.252991	-0.219727
0.209351	-0.171814
0.78125	-0.131836
1.20453	-0.101624
1.30402	-0.0814819
1.11969	-0.0698853
0.724182	-0.0650024
0.184021	-0.0650024
-0.349121	-0.0668335
-0.769958	-0.0683594
-0.996704	-0.0692749
-1.08215	-0.0698853
-1.12122	-0.071106
-1.08948	-0.072937
-0.795288	-0.0744629
-0.116882	-0.0747681
0.674438	-0.0732422
1.19751	-0.0701904
1.26373	-0.0668335
0.939331	-0.0637817
0.440063	-0.0613403
-0.0387573	-0.0585938
-0.404968	-0.0552368
-0.592651	-0.0521851
-0.580444	-0.0506592
-0.443726	-0.050354
-0.303955	-0.050354
-0.218811	-0.0506592
-0.124207	-0.0521851
0.0341797	-0.0540161
0.24353	-0.0561523
0.62439	-0.0579834
0.657959	-0.0579834
0.521545	-0.0567627
0.333252	-0.0543213
0.0912476	-0.0506592
-0.112	-0.0466919
-0.281067	-0.0430298
-0.402222	-0.039978
-0.427856	-0.0372314
-0.405579	-0.0344849
-0.34729	-0.0332642
-0.222473	-0.0332642
-0.065918	-0.0341797
0.0689697	-0.0350952
0.177917	-0.0363159
0.215759	-0.0378418
0.203247	-0.0396729
0.19104	-0.0411987
0.149536	-0.0411987
0.105286	-0.039978
0.0695801	-0.0378418
-0.0125122	-0.0363159
-0.0888062	-0.0354004
-0.113831	-0.0344849
-0.121155	-0.0335693
-0.0695801	-0.0326538
-0.0143433	-0.0320435
-0.0119019	-0.0311279
-0.020752	-0.0296021
0.0201416	-0.0280762
0.108643	-0.0262451
0.186768	-0.0234985
0.195007	-0.020752
0.143127	-0.0177002
0.0762939	-0.0140381
0.00244141	-0.0100708
-0.0668335	-0.00671387
-0.125122	-0.00305176
-0.169067	0.000305176
-0.178528	0.00335693
-0.149536	0.00671387
-0.088501	0.0106812
-0.0210571	0.0152588
-0.00183105	0.0195313
-0.0152588	0.0231934
-0.0204468	0.0265503
-0.0274658	0.0305176
-0.0360107	0.0338745
-0.0289917	0.0366211
0.0115967	0.0387573
0.0524902	0.0411987
0.0546265	0.0445557
0.0335693	0.0485229
0.00854492	0.0531006
-0.0140381	0.0582886
-0.012207	0.0640869
-0.0112915	0.0701904
0.0195313	0.0762939
0.0402832	0.0823975
0.0668335	0.0875854
0.0961304	0.0915527
0.103455	0.0952148
0.132751	0.0982666
0.166016	0.101013
0.174255	0.10376
0.110168	0.106506
-0.00152588	0.109253
-0.0790405	0.11261
-0.134888	0.115662
-0.174561	0.118713
-0.166016	0.12085
-0.143433	0.122986
-0.125427	0.124207
-0.112305	0.123901
-0.0878906	0.12207
-0.043335	0.119324
-0.00274658	0.115662
0.0161743	0.111084
0.0479126	0.105286
0.0769043	0.0985718
0.0894165	0.0906372
0.117493	0.0827026
0.118103	0.0744629
0.090332	0.065918
0.0775146	0.057373
0.0540161	0.0491333
0.0177002	0.039978
0.0265503	0.0299072
0.0634766	0.0198364
0.10437	0.0100708
0.123596	0.00152588
0.0802612	-0.00610352
-0.0439453	-0.0143433
-0.206909	-0.0213623
-0.296631	-0.0265503
-0.304871	-0.0296021
-0.304871	-0.0314331
-0.299377	-0.032959
-0.221252	-0.0341797
-0.105591	-0.0350952
0.0201416	-0.0363159
0.162354	-0.0372314
0.232544	-0.0384521
0.249329	-0.0402832
0.253601	-0.0424194
0.215149	-0.0445557
0.152588	-0.0479126
0.0765991	-0.0515747
-0.0125122	-0.0549316
-0.0726318	-0.057373
-0.141296	-0.0582886
-0.192261	-0.0585938
-0.200806	-0.0601196
-0.26123	-0.0628662
-0.4245	-0.0656128
-0.50293	-0.067749
-0.0192261	-0.0686646
0.87738	-0.0689697
1.56372	-0.0686646
1.52832	-0.067749
0.822754	-0.0668335
-0.141907	-0.0646973
-0.886536	-0.0622559
-1.21704	-0.0595093
-1.16608	-0.0570679
-0.901489	-0.0549316
-0.564575	-0.0527954
-0.212708	-0.0512695
0.145874	-0.0509644
0.397644	-0.0515747
0.513306	-0.0531006
0.549927	-0.0546265
0.53009	-0.0558472
0.377197	-0.0561523
0.163879	-0.055542
-0.0183105	-0.0549316
-0.148315	-0.0543213
-0.225525	-0.0534058
-0.21698	-0.0518799
-0.192261	-0.0494385
-0.168762	-0.0460815
-0.150146	-0.0424194
-0.10376	-0.0393677
-0.0653076	-0.0372314
-0.032959	-0.0360107
-0.000915527	-0.0357056
0.0698853	-0.0360107
0.126953	-0.0363159
0.151062	-0.0369263
0.0772095	-0.038147
0.0250244	-0.039978
-0.00701904	-0.0415039
-0.127869	-0.043335
-0.0924683	-0.0448608
0.0790405	-0.0454712
0.181274	-0.0457764
0.200195	-0.0457764
0.192871	-0.0448608
0.148926	-0.0436401
0.0222778	-0.0415039
-0.121765	-0.0387573
-0.142822	-0.0366211
0.00457764	-0.0354004
0.0527954	-0.0350952
0.039978	-0.0354004
-0.218811	-0.0360107
-0.416565	-0.0357056
-0.384521	-0.0357056
-0.305786	-0.0363159
-0.22522	-0.0375366
-0.0750732	-0.038147
0.0933838	-0.038147
0.215149	-0.0387573
0.368042	-0.0390625
0.339966	-0.0393677
0.259094	-0.0390625
0.56427	-0.0384521
0.670166	-0.038147
0.221863	-0.038147
-0.381775	-0.0378418
-0.754395	-0.0384521
-0.725098	-0.039978
-0.393066	-0.0411987
-0.00793457	-0.0427246
0.354614	-0.0457764
0.369263	-0.0500488
0.220642	-0.0543213
0.0482178	-0.0582886
-0.057373	-0.0619507
-0.115051	-0.0653076
-0.115051	-0.0686646
-0.0720215	-0.071106
0.0244141	-0.072937
0.071106	-0.0741577
0.0579834	-0.0738525
0.065918	-0.0723267
0.0500488	-0.0708008
0.0158691	-0.0686646
-0.0476074	-0.0671387
-0.098877	-0.0665283
-0.117798	-0.065918
-0.0628662	-0.0656128
0.0115967	-0.0656128
0.0463867	-0.065918
0.0540161	-0.0656128
0.0469971	-0.0656128
-0.0109863	-0.0665283
-0.0927734	-0.0692749
-0.142822	-0.0726318
-0.133972	-0.0747681
-0.0448608	-0.0759888
0.0610352	-0.0769043
0.110168	-0.0772095
0.101929	-0.0759888
0.0830078	-0.0741577
0.0979614	-0.0723267
0.111694	-0.0708008
0.109863	-0.0695801
0.0933838	-0.0686646
0.0805664	-0.0680542
0.0442505	-0.0668335
-0.00183105	-0.0662231
-0.0531006	-0.0674438
-0.112	-0.0698853
-0.165405	-0.072937
-0.215454	-0.0765991
-0.24231	-0.0796509
-0.249634	-0.0808716
-0.200195	-0.0802612
-0.142212	-0.0796509
-0.0616455	-0.0793457
0.0256348	-0.0775146
0.126648	-0.0741577
0.202026	-0.0698853
0.238953	-0.0646973
0.237122	-0.0576782
0.19928	-0.0494385
0.159302	-0.0415039
0.104065	-0.0354004
0.06073	-0.0308228
-0.00213623	-0.0271606
-0.0149536	-0.0241089
-0.022583	-0.0213623
-0.0137329	-0.0186157
-0.000915527	-0.0152588
0.0259399	-0.0119019
0.0421143	-0.00915527
-0.00152588	-0.00732422
-0.0613403	-0.00610352
-0.123291	-0.00427246
-0.149231	-0.00244141
-0.192566	-0.000915527
-0.219116	0
-0.189819	-0.000305176
-0.0897217	-0.00183105
0.0228882	-0.00366211
0.0842285	-0.00488281
0.127869	-0.00488281
0.140991	-0.00457764
0.1474	-0.00488281
0.115662	-0.00488281
0.0769043	-0.00427246
0.0289917	-0.00396729
-0.00579834	-0.00427246
-0.00152588	-0.00671387
0.0180054	-0.0109863
0.0448608	-0.0167847
0.0317383	-0.0234985
0.0216675	-0.0311279
0.010376	-0.0396729
-0.010376	-0.0479126
-0.03479	-0.0570679
-0.0576782	-0.0668335
-0.0686646	-0.0769043
-0.0927734	-0.0854492
-0.10437	-0.0924683
-0.101013	-0.0976563
-0.083313	-0.101624
-0.072937	-0.104675
-0.0823975	-0.107117
-0.065918	-0.108643
-0.0488281	-0.109558
0.000915527	-0.109863
0.0689697	-0.109253
0.117493	-0.108032
0.124512	-0.107117
0.0924683	-0.107117
0.0680542	-0.107117
0.0494385	-0.107422
0.0732422	-0.108643
0.0396729	-0.111084
-0.0164795	-0.11322
-0.0253296	-0.114136
-0.00793457	-0.115356
0.0549316	-0.116882
0.0985718	-0.119019
0.14801	-0.123596
0.159607	-0.13031
0.09552	-0.136719
-0.00915527	-0.138855
-0.149536	-0.136719
-0.223389	-0.131531
-0.190735	-0.122375
-0.0576782	-0.108032
0.0393677	-0.085144
-0.0564575	-0.0473022
-0.221558	0.0088501
-0.28717	0.0811768
-0.203552	0.16449
-0.020752	0.257263
0.161438	0.357361
0.169067	0.461731
0.155334	0.568237
0.115356	0.670471
0.125732	0.760803
0.214539	0.825195
0.185852	0.852356
0.0509644	0.837402
-0.0854492	0.78125
-0.126953	0.68512
-0.0280762	0.554504
0.0961304	0.397949
0.170898	0.22644
0.146179	0.0534058
0.151672	-0.108643
0.0891113	-0.247498
-0.133362	-0.354309
-0.295105	-0.423889
-0.411682	-0.455627
-0.617981	-0.452881
-0.872192	-0.422058
-0.974121	-0.371704
-0.646362	-0.3125
0.098877	-0.255127
0.899353	-0.205688
1.57806	-0.166321
1.8396	-0.137939
1.5918	-0.120239
1.05164	-0.111389
0.336304	-0.108337
-0.429077	-0.109558
-1.07208	-0.112
-1.51001	-0.113525
-1.67328	-0.114746
-1.55243	-0.116577
-1.21094	-0.117493
-0.678101	-0.117188
-0.0384521	-0.116577
0.592041	-0.114746
1.10168	-0.112915
1.37024	-0.112
1.34552	-0.111084
1.05347	-0.110474
0.59021	-0.109558
0.11261	-0.109558
-0.27832	-0.110474
-0.550537	-0.111389
-0.704346	-0.111084
-0.746765	-0.109558
-0.672607	-0.107727
-0.506897	-0.105591
-0.256348	-0.10376
0.0848389	-0.101624
0.472107	-0.0985718
0.678711	-0.0952148
0.641479	-0.0915527
0.46051	-0.0888062
0.237732	-0.0872803
0.0311279	-0.0881958
-0.1297	-0.090332
-0.24353	-0.0909424
-0.310669	-0.090332
-0.349426	-0.0891113
-0.33905	-0.0878906
-0.275879	-0.0866699
-0.16571	-0.085144
-0.0582886	-0.083313
0.0296021	-0.0805664
0.0900269	-0.0778198
0.126343	-0.0753784
0.11322	-0.0735474
0.0643921	-0.0723267
0.0112915	-0.0704956
-0.0253296	-0.0689697
-0.03479	-0.0683594
-0.0161743	-0.0683594
0.0296021	-0.0671387
0.0790405	-0.0637817
0.111694	-0.0588989
0.155334	-0.0549316
0.167542	-0.0531006
0.132446	-0.0524902
0.106812	-0.0524902
0.108337	-0.0512695
0.0747681	-0.0491333
-0.000915527	-0.0479126
-0.0830078	-0.0479126
-0.137939	-0.0476074
-0.171509	-0.0466919
-0.19989	-0.0448608
-0.184021	-0.0418091
-0.126343	-0.0375366
-0.0601196	-0.0323486
-0.0393677	-0.0256348
-0.0524902	-0.0189209
-0.0546265	-0.0131226
-0.0222778	-0.00823975
-0.00427246	-0.00396729
0.0192261	0.00152588
0.0643921	0.00732422
0.0939941	0.012207
0.078125	0.0167847
0.0546265	0.0213623
0.0637817	0.0268555
0.0543213	0.0323486
0.00640869	0.0378418
-0.0100708	0.0430298
0.0341797	0.0488281
0.0662231	0.0552368
0.0680542	0.0622559
0.105591	0.0695801
0.142517	0.0759888
0.112305	0.0811768
0.0524902	0.0854492
0.0149536	0.0897217
-0.0253296	0.0939941
-0.0909424	0.0985718
-0.126648	0.102539
-0.119324	0.105591
-0.134277	0.107727
-0.15625	0.110168
-0.129089	0.113525
-0.0759888	0.116272
-0.0305176	0.118408
0.00488281	0.121765
0.0479126	0.126038
0.0881958	0.128784
0.103149	0.13031
0.0961304	0.130005
0.0894165	0.127563
0.0778198	0.122986
0.0695801	0.116882
0.0790405	0.110168
0.0552368	0.102844
-0.0292969	0.0933838
-0.107727	0.0830078
-0.135498	0.0732422
-0.150452	0.0650024
-0.158997	0.0585938
-0.155945	0.0534058
-0.134583	0.0476074
-0.105591	0.0424194
-0.0646973	0.0369263
0.00183105	0.0311279
0.0793457	0.0250244
0.121155	0.0186157
0.13031	0.0112915
0.137939	0.00335693
0.161133	-0.00427246
0.175476	-0.0112915
0.170288	-0.017395
0.164795	-0.0213623
0.151367	-0.0244141
0.120239	-0.0268555
0.0494385	-0.0286865
-0.0204468	-0.0305176
-0.0653076	-0.0326538
-0.113831	-0.0341797
-0.162659	-0.0360107
-0.18219	-0.038147
-0.179443	-0.039978
-0.169373	-0.0424194
-0.163879	-0.0439453
-0.144958	-0.045166
-0.153809	-0.0460815
-0.175171	-0.0469971
-0.1651	-0.0457764
-0.146484	-0.0430298
-0.176392	-0.0415039
-0.256042	-0.0415039
-0.33905	-0.0421143
-0.317383	-0.0418091
0.265198	-0.0402832
1.1554	-0.0390625
1.74408	-0.038147
1.63239	-0.0375366
0.86792	-0.0366211
-0.126648	-0.0350952
-0.840149	-0.0335693
-1.14197	-0.0320435
-1.11115	-0.0311279
-0.844421	-0.0302124
-0.523682	-0.0299072
-0.276184	-0.0289917
-0.0445557	-0.0271606
0.186768	-0.0253296
0.354004	-0.0238037
0.422668	-0.022583
0.423584	-0.0216675
0.371094	-0.0204468
0.26062	-0.0183105
0.0695801	-0.0161743
-0.13916	-0.0143433
-0.289917	-0.0131226
-0.357361	-0.0125122
-0.33783	-0.012207
-0.253296	-0.0125122
-0.124207	-0.0128174
-0.0149536	-0.0131226
0.0805664	-0.0128174
0.177612	-0.0125122
0.256958	-0.0112915
0.257263	-0.0100708
0.195007	-0.0088501
0.130005	-0.00640869
0.107117	-0.00366211
0.0732422	-0.00183105
0.0317383	-0.000915527
0.0186157	0.000305176
0.0204468	0.00183105
-0.0247192	0.00213623
-0.0979614	0.00152588
-0.154724	0.000610352
-0.201111	-0.000305176
-0.222778	-0.000915527
-0.198669	-0.0012207
-0.141907	-0.000305176
-0.0985718	0.00213623
-0.0567627	0.00518799
0.022583	0.00640869
0.106201	0.00732422
0.113525	0.00732422
0.0814819	0.00610352
0.0759888	0.00488281
0.0778198	0.00427246
0.0244141	0.00335693
-0.0421143	0.000915527
-0.0341797	-0.00183105
0.0192261	-0.00366211
0.0540161	-0.00396729
0.0744629	-0.00244141
0.11322	-0.000305176
0.115967	0.0012207
0.0802612	0.00213623
0.0497437	0.00366211
0.0561523	0.00488281
0.0402832	0.00488281
0.00335693	0.00427246
-0.00549316	0.00335693
0.0158691	0.00244141
-0.00244141	0.00213623
-0.0704956	0.00183105
-0.104065	0.00183105
-0.102234	0.00244141
-0.0985718	0.00335693
-0.0924683	0.00396729
-0.0445557	0.00488281
-0.0167847	0.00549316
-0.0238037	0.00488281
-0.0344849	0.00335693
-0.012207	0.00183105
0.0112915	0.000915527
0.00915527	0
0.00549316	-0.0012207
0.0228882	-0.00305176
0.0222778	-0.00427246
0.00274658	-0.00549316
0.00457764	-0.00610352
0.039978	-0.00610352
0.0418091	-0.00549316
0.00549316	-0.00427246
-0.020752	-0.00396729
-0.0308228	-0.00396729
-0.0396729	-0.00488281
-0.0363159	-0.00549316
-0.0125122	-0.00579834
-0.00732422	-0.00640869
-0.0128174	-0.00732422
0.00183105	-0.0088501
0.0354004	-0.0106812
0.0384521	-0.0112915
0.0112915	-0.0109863
-0.0164795	-0.00976563
-0.0296021	-0.00732422
-0.0259399	-0.00488281
0.0112915	-0.00244141
0.0723267	-0.000915527
0.10376	0.0012207
0.0915527	0.00305176
0.0656128	0.00457764
0.0518799	0.00518799
0.0247192	0.00518799
-0.0241089	0.00396729
-0.0680542	0.00305176
-0.0906372	0.00183105
-0.0976563	0.000305176
-0.101318	-0.00152588
-0.088501	-0.00213623
-0.0402832	-0.0012207
0.0152588	0.000915527
0.0543213	0.00335693
0.0704956	0.00549316
0.0784302	0.0088501
0.0686646	0.0140381
0.0448608	0.020752
0.0216675	0.027771
0.00366211	0.0335693
-0.0158691	0.0384521
-0.0296021	0.0427246
-0.0204468	0.0457764
-0.00366211	0.0488281
0.0125122	0.0518799
0.215759	0.055542
0.310059	0.0585938
0.0695801	0.06073
-0.482178	0.0622559
-0.944214	0.0640869
-0.685425	0.0662231
-0.0177002	0.0683594
0.485535	0.0717163
0.557556	0.0753784
0.335693	0.0787354
0.266113	0.0802612
0.331116	0.0811768
0.302734	0.083313
0.180054	0.0875854
0.0488281	0.0933838
-0.0418091	0.0994873
-0.0869751	0.10498
-0.123901	0.108643
-0.184937	0.110474
-0.245667	0.111084
-0.284119	0.110474
-0.280151	0.108032
-0.254517	0.10376
-0.218201	0.0982666
-0.180359	0.0924683
-0.120239	0.0857544
-0.0500488	0.0784302
0.020752	0.0717163
0.175476	0.0646973
0.414429	0.0582886
0.437317	0.0521851
0.243835	0.0460815
-0.0421143	0.0396729
-0.232239	0.0320435
-0.252075	0.0244141
-0.13916	0.0186157
0.0463867	0.0143433
0.185547	0.0109863
0.233765	0.00762939
0.202332	0.00427246
0.093689	0.0012207
-0.0552368	-0.000305176
-0.181274	-0.000915527
-0.204468	-0.0012207
-0.15625	-0.00152588
-0.0875854	-0.00183105
-0.0323486	-0.00213623
0.0469971	-0.00274658
0.114441	-0.00274658
0.147095	-0.00183105
0.144653	0
0.135193	0.00152588
0.0930786	0.00183105
0.0299072	0.000305176
-0.0271606	-0.00366211
-0.0494385	-0.00915527
-0.022583	-0.0152588
0.0106812	-0.0204468
0.0262451	-0.0228882
-0.00579834	-0.0210571
-0.0469971	-0.0152588
-0.0741577	-0.00488281
-0.0793457	0.0119019
-0.101929	0.0411987
-0.112305	0.0866699
-0.0924683	0.148621
-0.0738525	0.22522
-0.00366211	0.313416
-0.0997925	0.409241
-0.160217	0.509949
-0.16449	0.614624
-0.0360107	0.720825
0.217285	0.821533
0.407104	0.905762
0.409241	0.960999
0.264587	0.977783
0.0866699	0.950317
-0.0247192	0.879517
-0.0558472	0.769043
-0.032959	0.625916
-0.00701904	0.460815
-0.0265503	0.285645
-0.0967407	0.11261
-0.168457	-0.0457764
-0.227661	-0.177612
-0.267639	-0.274048
-0.267029	-0.331421
-0.256042	-0.350647
-0.398865	-0.334778
-0.684814	-0.292358
-0.782166	-0.234985
-0.419006	-0.173035
0.343323	-0.115051
1.19995	-0.0668335
1.81213	-0.0311279
1.95892	-0.00854492
1.58905	0.00366211
0.84259	0.00701904
-0.0360107	0.00457764
-0.828857	-0.000610352
-1.3916	-0.00671387
-1.6748	-0.012207
-1.67633	-0.0167847
-1.43066	-0.0189209
-0.98938	-0.0189209
-0.430603	-0.0170898
0.114136	-0.0143433
0.559998	-0.0109863
0.89325	-0.00762939
1.09833	-0.00335693
1.13281	0.00152588
0.993347	0.00610352
0.694275	0.0100708
0.313416	0.012207
-0.0180054	0.0131226
-0.256042	0.0131226
-0.466309	0.0128174
-0.645752	0.012207
-0.706177	0.0115967
-0.632629	0.0109863
-0.434265	0.0106812
-0.13916	0.0112915
0.227051	0.012207
0.542908	0.0134277
0.699768	0.0146484
0.639648	0.017395
0.431824	0.0219727
0.154114	0.0271606
-0.115662	0.0311279
-0.3125	0.0341797
-0.402832	0.0363159
-0.398254	0.0387573
-0.32196	0.0418091
-0.228271	0.0436401
-0.224609	0.0442505
-0.205383	0.045166
-0.163269	0.045166
-0.0973511	0.0445557
-0.00457764	0.045166
0.0927734	0.0460815
0.157166	0.0469971
0.170288	0.0473022
0.317383	0.0479126
0.669861	0.0488281
0.531311	0.050354
-0.21637	0.0524902
-0.925598	0.0540161
-0.978394	0.0552368
-0.481262	0.0567627
0.18158	0.0588989
0.795593	0.0613403
1.09192	0.0646973
0.999451	0.0686646
0.625305	0.0714111
0.156555	0.0735474
-0.233765	0.0756836
-0.489197	0.0784302
-0.609436	0.0814819
-0.63446	0.0839233
-0.444031	0.085144
-0.132751	0.0866699
-0.224609	0.088501
-0.458679	0.0906372
-0.504456	0.093689
-0.329285	0.0982666
-0.0125122	0.104065
0.328979	0.109863
0.592041	0.115662
0.700684	0.121765
0.631409	0.128174
0.441895	0.134583
0.195618	0.140076
-0.017395	0.145264
-0.163269	0.149536
-0.218811	0.153503
-0.206604	0.158081
-0.162659	0.163574
-0.098877	0.169983
-0.0308228	0.176392
0.0146484	0.181274
0.0265503	0.185852
0.0149536	0.19165
-0.0088501	0.197754
-0.0360107	0.202637
-0.017395	0.205688
0.00366211	0.207825
0.0332642	0.209351
0.0549316	0.211487
-0.00183105	0.214539
-0.103455	0.218506
-0.202026	0.223999
-0.208435	0.229492
-0.141602	0.235901
-0.0445557	0.24231
0.0512695	0.248413
0.127258	0.253296
0.177002	0.255737
0.178528	0.254822
0.108643	0.250549
0.0216675	0.243835
-0.0210571	0.235291
-0.0640869	0.226746
-0.135498	0.217896
-0.173035	0.20874
-0.11261	0.19928
-0.00762939	0.189209
0.0942993	0.179443
0.159302	0.171204
0.171204	0.163879
0.135498	0.157166
0.0732422	0.150452
0.0268555	0.142822
-0.00396729	0.134583
-0.0247192	0.125732
-0.0378418	0.117493
-0.0445557	0.109863
-0.0259399	0.104065
-0.00366211	0.0991821
-0.0201416	0.0949097
-0.0564575	0.090332
-0.0772095	0.0869751
-0.0753784	0.0842285
-0.0415039	0.0817871
0.00183105	0.0793457
0.00549316	0.0775146
-0.0213623	0.0753784
-0.0442505	0.0726318
-0.0411987	0.0692749
-0.0140381	0.0662231
0.0161743	0.0643921
0.0320435	0.0628662
0.0247192	0.0616455
-0.00335693	0.0601196
-0.0378418	0.0588989
-0.0744629	0.0585938
-0.102539	0.0595093
-0.128479	0.0610352
-0.19043	0.0631714
-0.306396	0.0650024
-0.462341	0.0646973
-0.220337	0.062561
0.541382	0.0595093
1.33362	0.0564575
1.58417	0.0537109
1.11694	0.0524902
0.193787	0.0524902
-0.681458	0.0521851
-1.16455	0.0515747
-1.22742	0.0524902
-0.969849	0.0546265
-0.551758	0.0579834
-0.15686	0.0616455
0.155334	0.0643921
0.417175	0.0656128
0.557861	0.065918
0.586853	0.0665283
0.525818	0.0674438
0.405884	0.0668335
0.237122	0.0653076
0.0158691	0.0637817
-0.213928	0.0634766
-0.392151	0.0640869
-0.467224	0.0662231
-0.44342	0.0686646
-0.335999	0.071106
-0.210571	0.072937
-0.0881958	0.0747681
0.038147	0.0769043
0.15564	0.0796509
0.230713	0.0823975
0.212402	0.0845337
0.13855	0.085144
0.0704956	0.0836182
0.0274658	0.0817871
-0.0119019	0.0808716
-0.0253296	0.0811768
0.012207	0.0814819
0.0665283	0.0817871
0.101929	0.0820923
0.0952148	0.083313
0.0747681	0.0839233
0.0283813	0.0842285
-0.0286865	0.0848389
-0.0869751	0.0863647
-0.125122	0.0875854
-0.125122	0.088501
-0.0979614	0.0888062
-0.0537109	0.0888062
-0.0250244	0.0878906
0.00427246	0.0875854
0.0372314	0.088501
0.0570679	0.0906372
0.0292969	0.0915527
-0.0180054	0.0909424
-0.0588989	0.0891113
-0.0448608	0.0869751
-0.00335693	0.0839233
0.00488281	0.0827026
-0.0228882	0.0827026
-0.0378418	0.0839233
-0.0167847	0.0842285
0.055542	0.0836182
0.107727	0.0836182
0.135193	0.0854492
0.126343	0.0872803
0.0875854	0.088501
0.0421143	0.0888062
-0.00640869	0.0875854
-0.0384521	0.0848389
-0.0509644	0.0817871
-0.0531006	0.0787354
-0.0604248	0.0762939
-0.0482178	0.0741577
-0.0161743	0.0726318
0.0216675	0.0720215
0.0494385	0.0717163
0.0674438	0.0717163
0.101624	0.0720215
0.101624	0.0732422
0.0491333	0.0741577
-0.0241089	0.0738525
-0.0921631	0.072937
-0.141602	0.0717163
-0.150757	0.0701904
-0.119629	0.0686646
-0.104675	0.0674438
-0.0796509	0.0671387
-0.020752	0.065918
0.0106812	0.0634766
0.010376	0.0601196
0.00518799	0.0592041
0.0158691	0.0598145
0.0231934	0.0613403
0.045166	0.062561
0.0610352	0.0631714
0.0482178	0.0631714
0.0146484	0.0634766
-0.00488281	0.0665283
0.00213623	0.071106
0.00732422	0.072937
-0.000610352	0.0720215
0.0134277	0.0692749
0.0299072	0.0656128
0.0375366	0.0640869
0.0375366	0.0634766
0.0186157	0.0619507
-0.0180054	0.0588989
-0.0552368	0.0552368
-0.0479126	0.0540161
0.0106812	0.0549316
0.0741577	0.0558472
0.102234	0.0561523
0.113525	0.0585938
0.083313	0.0616455
0.0125122	0.0640869
-0.0619507	0.065918
-0.101013	0.0674438
-0.110168	0.0689697
-0.107117	0.0714111
-0.106812	0.0753784
-0.0714111	0.0793457
-0.0283813	0.0830078
-0.0170898	0.0866699
-0.0134277	0.0900269
0.0308228	0.0933838
0.067749	0.0967407
0.0872803	0.0994873
0.0848389	0.101929
0.098877	0.10437
0.0894165	0.107422
0.0384521	0.111694
-0.00732422	0.116577
-0.0338745	0.120239
-0.0805664	0.123901
-0.124512	0.127869
-0.113525	0.13031
-0.0354004	0.132141
0.0418091	0.133362
0.0759888	0.134583
0.101624	0.134888
0.150146	0.134277
0.134888	0.133667
0.0546265	0.133972
-0.00152588	0.135498
-0.032959	0.138245
-0.0924683	0.141602
-0.179138	0.144043
-0.20813	0.144653
-0.157776	0.144348
-0.0726318	0.143738
-0.0292969	0.141296
0.00854492	0.137024
0.0344849	0.13092
0.0344849	0.123901
0.00610352	0.116272
0.0140381	0.108032
0.0296021	0.0997925
0.0369263	0.0918579
0.00671387	0.0839233
0.0180054	0.0772095
0.0341797	0.071106
0.0509644	0.0646973
0.0646973	0.0582886
0.10437	0.0521851
0.110779	0.0460815
0.0576782	0.0405884
-0.0253296	0.0363159
-0.0463867	0.0326538
-0.0405884	0.0296021
-0.0479126	0.0271606
-0.0537109	0.0253296
-0.0338745	0.0244141
-0.0213623	0.0231934
-0.0128174	0.0210571
0.017395	0.0186157
0.0656128	0.0177002
0.0854492	0.0183105
0.0546265	0.0192261
0.0213623	0.0195313
0.00976563	0.0195313
-0.000915527	0.0192261
-0.0473022	0.0183105
-0.0683594	0.0161743
-0.0439453	0.0115967
-0.0186157	0.00579834
-0.0326538	0.0012207
-0.0140381	-0.000305176
0.0442505	0.0012207
0.0714111	0.00610352
0.0286865	0.017395
-0.00640869	0.038147
-0.17395	0.0726318
-0.341797	0.125122
-0.353699	0.195007
-0.180054	0.278931
0.00915527	0.372314
0.151367	0.473328
0.293274	0.580444
0.462036	0.691223
0.514221	0.798645
0.372009	0.892639
0.115356	0.960999
-0.118408	0.993347
-0.286865	0.983887
-0.347595	0.931702
-0.275574	0.837708
-0.108032	0.708008
0.0152588	0.550537
0.0534058	0.376282
0.0640869	0.198669
0.067749	0.0320435
0.0112915	-0.112305
-0.093689	-0.224609
-0.159302	-0.299683
-0.180969	-0.335693
-0.204468	-0.335693
-0.290833	-0.307007
-0.4776	-0.258789
-0.645752	-0.2005
-0.515747	-0.141296
0.0393677	-0.0888062
0.859375	-0.0460815
1.54816	-0.0140381
1.82129	0.00701904
1.61835	0.0186157
1.02264	0.0234985
0.187073	0.0238037
-0.653076	0.022583
-1.25366	0.020752
-1.54724	0.0186157
-1.60217	0.0161743
-1.47614	0.0143433
-1.14349	0.0128174
-0.645142	0.0109863
-0.103455	0.010376
0.400391	0.0112915
0.841064	0.0119019
1.1322	0.0128174
1.21704	0.0134277
1.08429	0.0140381
0.807495	0.0158691
0.447388	0.0183105
0.0759888	0.020752
-0.232849	0.0231934
-0.446777	0.0259399
-0.610962	0.0286865
-0.721436	0.0308228
-0.727234	0.032959
-0.584106	0.0357056
-0.312195	0.038147
0.0286865	0.0393677
0.375977	0.0384521
0.638733	0.0369263
0.713196	0.0357056
0.580444	0.0344849
0.32196	0.0344849
0.0366211	0.0350952
-0.214539	0.0354004
-0.402222	0.0357056
-0.470886	0.0375366
-0.410461	0.039978
-0.307922	0.0424194
-0.195923	0.0448608
-0.0494385	0.0469971
0.0875854	0.0482178
0.139771	0.0494385
0.121765	0.0512695
0.101929	0.0531006
0.0836182	0.0540161
0.039978	0.0549316
-0.0125122	0.0561523
0.00335693	0.0567627
0.0622559	0.0582886
0.0845337	0.0616455
0.0549316	0.0668335
0.0552368	0.0717163
0.0665283	0.0747681
0.085144	0.0765991
0.125427	0.0790405
0.171509	0.0827026
0.161438	0.0860596
0.108337	0.0881958
0.0604248	0.0891113
0.0119019	0.0897217
-0.0805664	0.0909424
-0.196533	0.0924683
-0.258789	0.0939941
-0.273743	0.0961304
-0.266418	0.0994873
-0.227966	0.104065
-0.144043	0.108643
-0.0906372	0.113831
-0.0671387	0.119934
-0.0146484	0.126038
0.0878906	0.131836
0.158691	0.137024
0.161438	0.141602
0.137024	0.146179
0.108643	0.150757
0.0473022	0.15564
-0.0213623	0.160522
-0.0271606	0.165405
0.00457764	0.170898
-0.00152588	0.176392
-0.0216675	0.18219
0.0106812	0.189209
0.0509644	0.196838
0.050354	0.203247
0.038147	0.207825
0.057373	0.212402
0.0750732	0.219116
0.0476074	0.22583
0.0213623	0.230408
0.0216675	0.233765
0.0256348	0.236206
0.00427246	0.238647
-0.0149536	0.241394
-0.0372314	0.243835
-0.0537109	0.245361
-0.071106	0.245667
-0.0631714	0.245972
-0.072937	0.245667
-0.0820923	0.245361
-0.0674438	0.245361
0.012207	0.244141
0.0775146	0.242615
0.0976563	0.241394
0.083313	0.240173
0.0592041	0.237427
0.00213623	0.232849
-0.0692749	0.227051
-0.071106	0.220642
-0.0241089	0.213623
0	0.205688
-0.0247192	0.196533
-0.017395	0.186768
0.0180054	0.176697
0.0469971	0.166321
0.0384521	0.15564
0.0537109	0.144348
0.0619507	0.134583
0.0418091	0.127563
0.00366211	0.123291
-0.00427246	0.119324
-0.00671387	0.115356
-0.0268555	0.111694
-0.043335	0.108337
-0.00946045	0.10376
0.0286865	0.0994873
0.0289917	0.0952148
0.00274658	0.0909424
-0.0180054	0.0866699
-0.032959	0.0817871
-0.0485229	0.0765991
-0.0460815	0.0717163
-0.0143433	0.0689697
0.00274658	0.0686646
-0.0402832	0.0704956
-0.115051	0.072937
-0.170288	0.0750732
-0.181885	0.0769043
-0.174866	0.078125
-0.167847	0.0793457
-0.231323	0.0805664
-0.326233	0.0802612
-0.435791	0.0787354
-0.17334	0.0769043
0.580139	0.0750732
1.35956	0.0735474
1.64246	0.0714111
1.25061	0.0692749
0.37384	0.067749
-0.525513	0.0665283
-1.08978	0.0668335
-1.24298	0.0680542
-1.03821	0.0686646
-0.632629	0.0695801
-0.244141	0.0717163
0.0158691	0.0744629
0.212708	0.0775146
0.353699	0.0796509
0.444031	0.0808716
0.45166	0.0814819
0.448914	0.0817871
0.39032	0.0820923
0.270996	0.0823975
0.0756836	0.0836182
-0.108948	0.085144
-0.24353	0.0857544
-0.308228	0.0869751
-0.349731	0.0888062
-0.368347	0.0906372
-0.272522	0.0924683
-0.123596	0.093689
-0.0106812	0.093689
0.0302124	0.0927734
0.0665283	0.0912476
0.102234	0.0900269
0.135498	0.0891113
0.150146	0.0881958
0.160828	0.0881958
0.167542	0.0888062
0.17395	0.0900269
0.15686	0.0912476
0.115356	0.0918579
0.0476074	0.0918579
-0.0131226	0.0918579
0.0778198	0.0927734
0.0891113	0.093689
-0.219116	0.0942993
-0.463562	0.0942993
-0.455933	0.0939941
-0.242004	0.0949097
-0.0250244	0.09552
0.0631714	0.0952148
0.122986	0.0942993
0.227051	0.093689
0.293884	0.0933838
0.238342	0.0921631
0.0787354	0.0900269
-0.101929	0.0878906
-0.221863	0.0854492
-0.260925	0.0823975
-0.232544	0.0796509
-0.174561	0.0784302
-0.124207	0.0784302
-0.0933838	0.0787354
-0.0448608	0.0793457
0.0311279	0.0799561
0.1297	0.0820923
0.221558	0.0842285
0.310669	0.0866699
0.327454	0.0894165
0.254822	0.0912476
0.198059	0.0912476
0.122986	0.0900269
-0.0109863	0.0881958
-0.135193	0.0866699
-0.159607	0.0857544
-0.136719	0.0839233
-0.127563	0.0799561
-0.148315	0.0753784
-0.187073	0.0717163
-0.177612	0.0692749
-0.1651	0.067749
-0.118103	0.0656128
-0.0289917	0.0631714
0.0802612	0.0610352
0.176697	0.0595093
0.239563	0.0595093
0.234375	0.0604248
0.181885	0.0610352
0.142822	0.0619507
0.128174	0.0640869
0.107422	0.065918
0.0650024	0.0668335
0.00152588	0.0674438
-0.0701904	0.0671387
-0.141296	0.0662231
-0.191956	0.0656128
-0.201416	0.0650024
-0.172119	0.0653076
-0.140991	0.0668335
-0.112	0.0680542
-0.0814819	0.0695801
-0.0479126	0.071106
-0.020752	0.0732422
0.010376	0.0753784
0.032959	0.0765991
0.0317383	0.0762939
0.0158691	0.0741577
0.0228882	0.0720215
0.0375366	0.0704956
0.0701904	0.0689697
0.126038	0.067749
0.178223	0.0665283
0.193787	0.0653076
0.175781	0.0650024
0.116882	0.0662231
0.022583	0.0686646
-0.0817871	0.0704956
-0.162048	0.0714111
-0.170593	0.0717163
-0.165405	0.0723267
-0.157776	0.0738525
-0.162964	0.0775146
-0.148621	0.0830078
-0.106812	0.0894165
-0.0427246	0.09552
-0.0112915	0.100708
0.00854492	0.105286
0.045166	0.109863
0.09552	0.115051
0.142212	0.120544
0.151672	0.124817
0.1474	0.127258
0.132141	0.128174
0.119019	0.128784
0.102844	0.13031
0.0637817	0.132141
0.00274658	0.133667
-0.0335693	0.135498
-0.0439453	0.137634
-0.0366211	0.140686
-0.0292969	0.142822
-0.0286865	0.143738
-0.0283813	0.144348
-0.0256348	0.144653
-0.0274658	0.144043
-0.0457764	0.142822
-0.0497437	0.142517
-0.03479	0.142517
-0.043335	0.140686
-0.0619507	0.13855
-0.0680542	0.135803
-0.0405884	0.132141
0.00274658	0.126343
0.027771	0.119629
0.0396729	0.113831
0.0485229	0.108032
0.0466919	0.102234
0.0408936	0.09552
0.043335	0.0875854
0.0454712	0.0790405
0.0332642	0.0701904
0.000305176	0.062561
-0.039978	0.0564575
-0.0692749	0.0509644
-0.0811768	0.0454712
-0.0805664	0.0402832
-0.0708008	0.0363159
-0.065918	0.0323486
-0.0460815	0.0280762
-0.0112915	0.0247192
0.0192261	0.0222778
0.0390625	0.0201416
0.0784302	0.0180054
0.111694	0.017395
0.114441	0.0170898
0.108032	0.0167847
0.0738525	0.0161743
0.032959	0.0164795
-0.00549316	0.0180054
-0.0100708	0.0198364
-0.0143433	0.0213623
-0.00366211	0.020752
-0.0146484	0.017395
-0.0271606	0.012207
-0.0668335	0.00793457
-0.0854492	0.00640869
-0.0592041	0.00610352
-0.0280762	0.00793457
-0.00732422	0.0149536
-0.0253296	0.0308228
-0.0256348	0.0592041
-0.0167847	0.10376
0.00152588	0.166626
0.00793457	0.245972
-0.00244141	0.336609
-0.0268555	0.434875
-0.0415039	0.53833
-0.0305176	0.645142
-0.0457764	0.751648
-0.0582886	0.85083
-0.0445557	0.929871
0.00305176	0.976257
0.055542	0.982361
0.0839233	0.946045
0.122681	0.868225
0.18158	0.752869
0.22522	0.606995
0.213928	0.440674
0.150757	0.266418
0.0427246	0.0982666
-0.0756836	-0.0534058
-0.189209	-0.178833
-0.299377	-0.270386
-0.378723	-0.324097
-0.362549	-0.340576
-0.25238	-0.325012
-0.209045	-0.28595
-0.297241	-0.231628
-0.350342	-0.170898
-0.131226	-0.114746
0.368652	-0.0689697
0.955811	-0.0354004
1.35468	-0.0119019
1.40289	0.00305176
1.06262	0.010376
0.440063	0.0125122
-0.259399	0.0112915
-0.84137	0.00793457
-1.19324	0.00427246
-1.33331	0.0012207
-1.31958	-0.000915527
-1.14899	-0.00244141
-0.800171	-0.00335693
-0.283203	-0.00366211
0.285339	-0.00305176
0.780945	-0.00213623
1.12885	-0.0012207
1.25854	0.000610352
1.15448	0.00335693
0.817871	0.00579834
0.344543	0.00793457
-0.126343	0.0100708
-0.488281	0.0119019
-0.693054	0.0128174
-0.798035	0.0137329
-0.827942	0.0146484
-0.786743	0.0149536
-0.637207	0.0143433
-0.35675	0.0137329
0.0421143	0.0149536
0.483398	0.0177002
0.836487	0.0219727
0.993347	0.0256348
0.938721	0.0286865
0.702515	0.0317383
0.350037	0.03479
-0.0100708	0.0372314
-0.292664	0.0372314
-0.491943	0.0357056
-0.599976	0.0341797
-0.608826	0.032959
-0.523376	0.0326538
-0.360718	0.0326538
-0.168457	0.0323486
0.015564	0.0326538
0.125732	0.03479
0.176697	0.0390625
0.185242	0.0436401
0.171814	0.0473022
0.127869	0.0509644
0.0704956	0.0537109
0.0622559	0.0564575
0.0875854	0.0576782
0.126648	0.0579834
0.141296	0.0585938
0.180664	0.0604248
0.222778	0.062561
0.246887	0.0643921
0.209045	0.0650024
0.0915527	0.0653076
-0.0387573	0.0671387
-0.176086	0.0708008
-0.275574	0.0753784
-0.342712	0.0793457
-0.357056	0.0830078
-0.350342	0.0872803
-0.326233	0.0912476
-0.27832	0.0952148
-0.213928	0.0991821
-0.111694	0.102234
0.00427246	0.10437
0.110168	0.105591
0.164185	0.106812
0.192566	0.108032
0.201416	0.110168
0.209351	0.114441
0.212097	0.120239
0.2005	0.125427
0.184326	0.130615
0.166321	0.137024
0.130615	0.144653
0.0726318	0.152893
0.015564	0.160828
-0.0152588	0.167847
-0.0161743	0.17395
-0.0384521	0.179443
-0.0747681	0.184021
-0.10437	0.189514
-0.0997925	0.195313
-0.0717163	0.201416
-0.0701904	0.207825
-0.0775146	0.213928
-0.0964355	0.219727
-0.102844	0.224609
-0.102234	0.229187
-0.0897217	0.233459
-0.0509644	0.236816
0.0143433	0.238647
0.0952148	0.238953
0.140076	0.238342
0.158691	0.237122
0.148926	0.235901
0.119324	0.234375
0.110474	0.231934
0.0827026	0.230408
0.0222778	0.229492
-0.0335693	0.227966
-0.0775146	0.225525
-0.120544	0.221252
-0.172119	0.215149
-0.210266	0.209045
-0.217896	0.202942
-0.173035	0.195007
-0.0894165	0.184326
0.00152588	0.17334
0.0750732	0.162354
0.112305	0.151672
0.109253	0.140991
0.0912476	0.132141
0.0814819	0.124207
0.0717163	0.116882
0.067749	0.109558
0.0869751	0.103149
0.108337	0.0976563
0.10437	0.0927734
0.0817871	0.088501
0.067749	0.0839233
0.0531006	0.0793457
0.0259399	0.0753784
-0.0296021	0.0726318
-0.0869751	0.0708008
-0.118103	0.0698853
-0.144043	0.0686646
-0.15625	0.0668335
-0.169373	0.0640869
-0.16449	0.0601196
-0.16449	0.057373
-0.169983	0.057373
-0.166321	0.0579834
-0.15564	0.0576782
-0.153503	0.0561523
-0.197754	0.0540161
-0.234985	0.0531006
-0.109558	0.0549316
0.492249	0.0582886
1.24451	0.0613403
1.60065	0.0628662
1.34094	0.0631714
0.585022	0.0628662
-0.3125	0.0628662
-0.981445	0.062561
-1.28876	0.0619507
-1.24817	0.0601196
-0.97168	0.0582886
-0.593872	0.057373
-0.227661	0.0570679
0.0726318	0.0567627
0.280762	0.0552368
0.379333	0.0537109
0.420532	0.0537109
0.415955	0.0549316
0.416565	0.0564575
0.404968	0.0576782
0.338135	0.0588989
0.249634	0.06073
0.120544	0.0631714
-0.0241089	0.065918
-0.166626	0.0686646
-0.271606	0.0720215
-0.292969	0.0747681
-0.281677	0.0778198
-0.255432	0.0802612
-0.231934	0.083313
-0.170288	0.0869751
-0.0588989	0.0897217
0.0396729	0.0900269
0.127563	0.0897217
0.176697	0.090332
0.19928	0.0921631
0.2005	0.0939941
0.148621	0.093689
0.0701904	0.0915527
-0.0256348	0.0894165
-0.105896	0.0878906
-0.136108	0.0863647
-0.106201	0.0845337
-0.0430298	0.0830078
0.0170898	0.0820923
0.104675	0.0802612
0.187683	0.0790405
0.213623	0.0793457
0.175171	0.0805664
0.0811768	0.0823975
-0.0149536	0.0845337
-0.0875854	0.0866699
-0.134277	0.0878906
-0.183716	0.0878906
-0.245972	0.0875854
-0.264893	0.0863647
-0.249023	0.0839233
-0.22522	0.0808716
-0.166931	0.078125
-0.0686646	0.0759888
0.0546265	0.0741577
0.163574	0.0720215
0.23407	0.0701904
0.254822	0.0695801
0.233459	0.0704956
0.210876	0.0723267
0.181274	0.0732422
0.147095	0.0732422
0.093689	0.072937
0.00640869	0.072937
-0.0875854	0.072937
-0.177612	0.0720215
-0.267029	0.071106
-0.305176	0.071106
-0.00915527	0.0720215
0.203552	0.0732422
0.0408936	0.0747681
-0.13855	0.0747681
-0.118103	0.0735474
-0.0177002	0.072937
0.0753784	0.0726318
0.101013	0.0720215
0.0585938	0.071106
0.0109863	0.0686646
-0.00427246	0.0653076
0.0286865	0.0622559
0.0793457	0.0598145
0.110474	0.0598145
0.117493	0.0604248
0.115662	0.0610352
0.093689	0.0613403
0.0274658	0.0622559
-0.0616455	0.0634766
-0.134888	0.065918
-0.161743	0.0674438
-0.148315	0.0680542
-0.13916	0.067749
-0.120544	0.0665283
-0.0820923	0.0646973
-0.0521851	0.0619507
-0.032959	0.0592041
-0.00793457	0.0579834
0.0314331	0.0579834
0.0622559	0.0579834
0.0830078	0.057373
0.0952148	0.057373
0.107422	0.0588989
0.109253	0.0628662
0.0906372	0.0680542
0.0683594	0.0726318
0.0500488	0.0772095
0.0143433	0.0817871
-0.0558472	0.0872803
-0.128174	0.0927734
-0.16571	0.0982666
-0.15625	0.10376
-0.109558	0.109558
-0.0491333	0.115662
-0.00183105	0.121155
0.012207	0.126038
0.00915527	0.130005
0.0170898	0.132446
0.0311279	0.134583
0.0323486	0.136719
0.00732422	0.138855
-0.0210571	0.140686
-0.0234985	0.142822
0.0012207	0.145874
0.0274658	0.149536
0.043335	0.154114
0.0518799	0.158997
0.0656128	0.162964
0.0946045	0.166016
0.118103	0.168152
0.121155	0.168762
0.0997925	0.166321
0.0656128	0.161743
0.0262451	0.155029
0.0088501	0.1474
-0.00457764	0.138245
-0.0302124	0.128479
-0.0595093	0.119629
-0.11261	0.112
-0.158997	0.10437
-0.145874	0.0967407
-0.0506592	0.0888062
0.0643921	0.0820923
0.13031	0.0765991
0.128174	0.071106
0.0488281	0.0650024
-0.0668335	0.0579834
-0.152893	0.0515747
-0.167847	0.0439453
-0.121155	0.0366211
-0.0640869	0.0323486
-0.0280762	0.0305176
-0.0219727	0.0289917
-0.0192261	0.0271606
-0.0201416	0.0259399
-0.0445557	0.0253296
-0.00640869	0.0250244
0.0872803	0.0262451
0.180359	0.0271606
0.275879	0.0271606
0.167847	0.0265503
-0.126038	0.0250244
-0.302734	0.0238037
-0.317078	0.0219727
-0.192261	0.0192261
0.0189209	0.0140381
0.230103	0.00701904
0.376587	0.000610352
0.402222	-0.00305176
0.266418	-0.00305176
0.281372	0.00152588
0.205383	0.0115967
-0.0137329	0.0292969
-0.26001	0.0588989
-0.384216	0.104065
-0.382996	0.16571
-0.334778	0.242615
-0.257263	0.331726
-0.154419	0.428772
-0.043335	0.530396
0.0445557	0.634155
0.100403	0.737305
0.154114	0.83374
0.196533	0.913086
0.213928	0.961914
0.193481	0.971375
0.144958	0.939331
0.107727	0.86731
0.0949097	0.760193
0.0967407	0.625
0.093689	0.46875
0.0640869	0.302124
-0.00488281	0.136719
-0.112915	-0.0152588
-0.235596	-0.142212
-0.347595	-0.235901
-0.426331	-0.293274
-0.444641	-0.315552
-0.371094	-0.307007
-0.258179	-0.274658
-0.245972	-0.227966
-0.284424	-0.176697
-0.17334	-0.128479
0.188599	-0.0881958
0.684814	-0.0567627
1.07666	-0.0338745
1.20544	-0.0192261
1.05652	-0.0119019
0.700989	-0.00915527
0.241699	-0.00854492
-0.223083	-0.0088501
-0.609436	-0.00854492
-0.872192	-0.00732422
-1.0144	-0.00488281
-1.06262	-0.00152588
-0.991516	0.0012207
-0.718689	0.00396729
-0.191345	0.00640869
0.480652	0.00793457
1.04004	0.00946045
1.26099	0.0109863
1.07391	0.0125122
0.611267	0.0131226
0.0750732	0.0134277
-0.391541	0.0143433
-0.709534	0.0161743
-0.856628	0.0183105
-0.858154	0.0201416
-0.735474	0.0213623
-0.500183	0.0222778
-0.185242	0.0228882
0.17395	0.0228882
0.522461	0.0231934
0.776367	0.0241089
0.873108	0.0247192
0.79834	0.0234985
0.58197	0.020752
0.304871	0.0183105
0.0491333	0.0177002
-0.155029	0.0186157
-0.304871	0.0204468
-0.40741	0.0222778
-0.455017	0.0241089
-0.431213	0.0259399
-0.35614	0.0289917
-0.25177	0.0326538
-0.123901	0.0350952
0.0128174	0.0366211
0.132751	0.0375366
0.199585	0.0387573
0.198669	0.0402832
0.137024	0.0418091
0.0460815	0.0427246
-0.0271606	0.0427246
-0.0646973	0.0424194
-0.0732422	0.043335
-0.0524902	0.0454712
0.0106812	0.0473022
0.0961304	0.0488281
0.164795	0.0506592
0.209656	0.0531006
0.214233	0.055542
0.161743	0.0579834
0.0778198	0.0610352
-0.00549316	0.0643921
-0.0927734	0.0680542
-0.18219	0.0726318
-0.254517	0.0778198
-0.289307	0.0823975
-0.289917	0.0863647
-0.265198	0.088501
-0.207214	0.0894165
-0.121155	0.0900269
-0.0335693	0.090332
0.0366211	0.0909424
0.0891113	0.0933838
0.125427	0.0970459
0.142212	0.0997925
0.150757	0.102844
0.151367	0.107422
0.132751	0.113525
0.120239	0.121155
0.121155	0.128784
0.125122	0.135193
0.122681	0.140991
0.116272	0.145569
0.128784	0.148926
0.138245	0.151367
0.113525	0.153503
0.0613403	0.15564
0.00183105	0.157776
-0.0537109	0.159912
-0.115051	0.162964
-0.18158	0.166931
-0.23468	0.171814
-0.248718	0.177002
-0.20874	0.18219
-0.142212	0.186462
-0.0817871	0.19104
-0.0305176	0.195618
0.00671387	0.198975
0.03479	0.201721
0.0515747	0.204163
0.0427246	0.205383
0.0198364	0.205688
0.00946045	0.207214
0.0238037	0.20874
0.050354	0.209351
0.0784302	0.20813
0.090332	0.205078
0.0827026	0.201111
0.0576782	0.197144
0.0250244	0.191956
-0.0228882	0.184631
-0.0708008	0.176086
-0.0973511	0.167236
-0.110474	0.158386
-0.110779	0.148926
-0.0881958	0.138245
-0.0552368	0.128174
-0.00549316	0.12085
0.0628662	0.115967
0.102844	0.111084
0.131836	0.105896
0.164185	0.100708
0.201721	0.09552
0.170898	0.0894165
0.0827026	0.0823975
-0.0421143	0.0756836
-0.118713	0.0689697
-0.0732422	0.0619507
0.0152588	0.0543213
-0.0897217	0.0463867
-0.239563	0.0390625
-0.296021	0.0326538
-0.245056	0.027771
-0.10498	0.0238037
0.0387573	0.0222778
0.127869	0.0228882
0.149536	0.0238037
0.093689	0.0250244
-0.0405884	0.0268555
-0.288696	0.0296021
-0.537415	0.0317383
-0.533752	0.032959
0.09552	0.0335693
1.05286	0.03479
1.66107	0.0354004
1.604	0.0344849
0.964355	0.0317383
0.0537109	0.0286865
-0.777283	0.0262451
-1.3266	0.0250244
-1.51825	0.0247192
-1.35284	0.0241089
-0.970154	0.0241089
-0.527344	0.0247192
-0.0991821	0.0265503
0.292358	0.0289917
0.592041	0.0311279
0.75592	0.0326538
0.786133	0.0335693
0.699768	0.0344849
0.541992	0.03479
0.333557	0.0344849
0.0747681	0.0344849
-0.195313	0.0360107
-0.422058	0.0375366
-0.523071	0.0387573
-0.484009	0.0396729
-0.329285	0.0411987
-0.114746	0.043335
0.0799561	0.0454712
0.219727	0.0473022
0.288391	0.0482178
0.307617	0.0485229
0.282288	0.0482178
0.233459	0.0479126
0.177612	0.0473022
0.101624	0.0463867
0.0393677	0.0460815
-0.0360107	0.0448608
-0.125427	0.043335
-0.196228	0.0427246
-0.252075	0.0427246
-0.270081	0.0436401
-0.25177	0.0439453
-0.195007	0.045166
-0.129089	0.0463867
-0.0518799	0.0463867
0.027771	0.0460815
0.0701904	0.0469971
0.0845337	0.0482178
0.0653076	0.0485229
0.0338745	0.0476074
-0.00793457	0.0469971
-0.0442505	0.045166
-0.0479126	0.0430298
-0.0393677	0.0421143
-0.00640869	0.0415039
0.0256348	0.0408936
0.0717163	0.0411987
0.110168	0.0408936
0.113525	0.0402832
0.088501	0.0390625
0.0585938	0.0378418
0.0341797	0.0366211
-0.00946045	0.03479
-0.0286865	0.0323486
-0.0442505	0.0302124
-0.0448608	0.0286865
-0.027771	0.0280762
-0.000610352	0.0271606
0.027771	0.0268555
0.0415039	0.0274658
0.0585938	0.0286865
0.0692749	0.0296021
0.0805664	0.0308228
0.0787354	0.0317383
0.0683594	0.0323486
0.0341797	0.0320435
-0.00946045	0.0308228
-0.0320435	0.0292969
-0.0579834	0.0274658
-0.0881958	0.0259399
-0.109558	0.0247192
-0.114746	0.0231934
-0.0909424	0.0219727
-0.0582886	0.0216675
-0.0338745	0.0219727
-0.0213623	0.0213623
-0.0274658	0.0204468
-0.0488281	0.0204468
-0.0637817	0.020752
-0.0479126	0.0216675
-0.0143433	0.0228882
0.0292969	0.0241089
0.067749	0.0247192
0.0857544	0.0256348
0.106812	0.0268555
0.139771	0.0283813
0.139465	0.0305176
0.104675	0.0326538
0.0646973	0.0350952
0.0195313	0.0372314
-0.0177002	0.0396729
-0.0491333	0.0430298
-0.0720215	0.0463867
-0.0750732	0.0500488
-0.0662231	0.0537109
-0.0799561	0.0576782
-0.110779	0.0616455
-0.126648	0.0656128
-0.12146	0.0689697
-0.0866699	0.0704956
-0.0344849	0.071106
0.0268555	0.0723267
0.0891113	0.0747681
0.124207	0.0775146
0.131836	0.0805664
0.128479	0.083313
0.119019	0.0869751
0.0921631	0.0915527
0.0543213	0.0961304
0.00366211	0.100708
-0.045166	0.10437
-0.0680542	0.106506
-0.0802612	0.107117
-0.0823975	0.106506
-0.0869751	0.10498
-0.0787354	0.101929
-0.0509644	0.0970459
-0.0305176	0.0912476
-0.0219727	0.0848389
-0.0134277	0.0778198
0.00946045	0.0708008
0.0473022	0.0634766
0.0860596	0.0546265
0.119934	0.0457764
0.139771	0.0369263
0.132446	0.0292969
0.100708	0.0234985
0.0552368	0.0167847
0.0119019	0.00915527
-0.0247192	0.00183105
-0.0357056	-0.00427246
-0.0317383	-0.00915527
-0.0326538	-0.0134277
-0.0576782	-0.0177002
-0.0933838	-0.022583
-0.10498	-0.0268555
-0.114441	-0.0292969
-0.123291	-0.0299072
-0.131226	-0.0289917
-0.110474	-0.0274658
-0.0769043	-0.0265503
-0.0326538	-0.0265503
0.00671387	-0.0262451
0.032959	-0.0253296
0.0646973	-0.0247192
0.0741577	-0.0256348
0.0662231	-0.0283813
0.055542	-0.0335693
0.072937	-0.0411987
0.0878906	-0.0500488
0.106201	-0.0576782
0.124207	-0.06073
0.114746	-0.0585938
0.101318	-0.0521851
0.0506592	-0.0421143
-0.101013	-0.0256348
-0.336914	0.00213623
-0.332336	0.0457764
0.16571	0.106201
0.305176	0.180664
-0.010376	0.265198
-0.283508	0.357056
-0.239563	0.454407
0.0259399	0.55542
0.242004	0.656433
0.335693	0.751343
0.411072	0.828857
0.559387	0.87738
0.391541	0.888367
-0.24231	0.858154
-0.884094	0.788269
-0.918579	0.683289
-0.487671	0.549622
-0.0292969	0.395508
0.257874	0.231628
0.343323	0.0698853
0.315857	-0.0775146
0.213928	-0.200806
0.0631714	-0.292664
-0.127563	-0.349121
-0.299683	-0.371704
-0.348206	-0.365906
-0.345154	-0.33783
-0.412903	-0.293274
-0.50415	-0.24231
-0.374451	-0.193481
0.0613403	-0.150757
0.656738	-0.116882
1.13037	-0.0924683
1.2973	-0.0759888
1.16425	-0.065918
0.774231	-0.0601196
0.263367	-0.0576782
-0.276184	-0.0576782
-0.698547	-0.0595093
-0.955505	-0.0628662
-1.08063	-0.065918
-1.08795	-0.0668335
-0.897827	-0.0665283
-0.44342	-0.065918
0.153198	-0.0656128
0.697937	-0.0650024
0.996704	-0.0631714
1.0025	-0.06073
0.739746	-0.0585938
0.332336	-0.0564575
-0.0979614	-0.0543213
-0.434875	-0.0521851
-0.646362	-0.0500488
-0.751648	-0.0482178
-0.726624	-0.0466919
-0.539246	-0.045166
-0.259705	-0.0439453
0.0640869	-0.0427246
0.345459	-0.0415039
0.547791	-0.0415039
0.619507	-0.0421143
0.568848	-0.0424194
0.460205	-0.0439453
0.352783	-0.0457764
0.215759	-0.0463867
0.020752	-0.0460815
-0.196228	-0.045166
-0.380554	-0.0418091
-0.501709	-0.0378418
-0.536499	-0.03479
-0.466614	-0.0323486
-0.294495	-0.0296021
-0.0726318	-0.0265503
0.130615	-0.0244141
0.253296	-0.022583
0.289307	-0.0213623
0.249329	-0.0204468
0.185547	-0.0192261
0.134277	-0.0177002
0.0613403	-0.015564
-0.0271606	-0.0137329
-0.045166	-0.0125122
-0.0238037	-0.0119019
-0.0308228	-0.0106812
-0.0210571	-0.00732422
0.0418091	-0.00457764
0.0784302	-0.00274658
0.0683594	-0.000610352
0.0619507	0.00183105
0.0558472	0.00396729
0.00823975	0.00518799
-0.0585938	0.00671387
-0.0949097	0.00823975
-0.114746	0.00915527
-0.131531	0.0106812
-0.142517	0.0125122
-0.146484	0.0146484
-0.143738	0.0170898
-0.0912476	0.0189209
-0.0341797	0.020752
0.00518799	0.0238037
0.0286865	0.0283813
0.065918	0.0332642
0.0753784	0.038147
0.0723267	0.0427246
0.0598145	0.0469971
0.0750732	0.0506592
0.0909424	0.0543213
0.088501	0.0576782
0.0662231	0.06073
0.062561	0.0646973
0.0628662	0.0692749
0.0354004	0.0738525
0.0195313	0.078125
0.010376	0.0830078
0.0125122	0.090332
-0.0247192	0.0991821
-0.0454712	0.106812
-0.0549316	0.112915
-0.00518799	0.119019
-0.00183105	0.125732
-0.00244141	0.133362
-0.00305176	0.140381
0.00732422	0.146484
-0.00518799	0.151367
-0.03479	0.153503
-0.0469971	0.153503
-0.0326538	0.151978
-0.0125122	0.149536
-0.0320435	0.148315
-0.0430298	0.147095
-0.062561	0.146484
-0.0631714	0.14679
-0.0723267	0.146179
-0.0366211	0.145874
0.00488281	0.144653
-0.00732422	0.143127
-0.0354004	0.141907
-0.0180054	0.141602
0.0189209	0.13916
-0.00183105	0.133362
-0.0228882	0.125122
-0.0531006	0.116882
-0.0759888	0.108337
0.00366211	0.0991821
0.106201	0.090332
0.224609	0.0814819
0.325012	0.0735474
0.342102	0.0671387
0.237122	0.0601196
0.0427246	0.0531006
-0.144958	0.0469971
-0.264893	0.0411987
-0.302734	0.0350952
-0.292358	0.0286865
-0.191956	0.0219727
-0.0628662	0.015564
0.0537109	0.0109863
0.126648	0.00701904
0.168152	0.00274658
0.158386	-0.00244141
0.09552	-0.00701904
0.0299072	-0.0109863
-0.038147	-0.0143433
-0.119934	-0.0158691
-0.202332	-0.0158691
-0.242004	-0.017395
-0.233154	-0.0198364
-0.176697	-0.0213623
-0.130005	-0.0228882
-0.176086	-0.0241089
-0.27771	-0.0259399
-0.127563	-0.0286865
0.531311	-0.0320435
1.24695	-0.0341797
1.52191	-0.0341797
1.24451	-0.0326538
0.563049	-0.0299072
-0.293274	-0.0268555
-1.02386	-0.0241089
-1.41693	-0.0201416
-1.40991	-0.0152588
-1.09406	-0.010376
-0.643616	-0.00610352
-0.179138	-0.00305176
0.197144	-0.000610352
0.449829	-0.0012207
0.592957	-0.00396729
0.675964	-0.00732422
0.65979	-0.00976563
0.550537	-0.0109863
0.405579	-0.012207
0.204773	-0.0134277
-0.0686646	-0.0143433
-0.316772	-0.0143433
-0.401611	-0.0131226
-0.375061	-0.012207
-0.296631	-0.0112915
-0.1651	-0.010376
-0.0167847	-0.00793457
0.0640869	-0.00457764
0.0857544	-0.00274658
0.102539	-0.00244141
0.109558	-0.00335693
0.0576782	-0.00427246
-0.00793457	-0.00244141
-0.0320435	0.0012207
-0.0192261	0.00457764
0.000305176	0.00640869
0.0314331	0.00671387
0.0430298	0.00701904
-0.00183105	0.00793457
-0.0735474	0.0088501
-0.111389	0.00915527
-0.102539	0.00854492
-0.0622559	0.00762939
-0.0167847	0.00610352
0.0497437	0.00488281
0.116882	0.00396729
0.138245	0.00244141
0.102539	0.00152588
0.0463867	0.00213623
-0.00488281	0.00396729
-0.06073	0.00457764
-0.104675	0.00366211
-0.0967407	0.00213623
-0.0494385	0.000610352
-0.0332642	-0.0012207
-0.0274658	-0.00335693
-0.00671387	-0.00610352
0.0146484	-0.00854492
0.00457764	-0.0100708
0.0119019	-0.00976563
0.0411987	-0.00915527
0.0765991	-0.00946045
0.0814819	-0.0100708
0.0680542	-0.00976563
0.0411987	-0.00946045
0.0216675	-0.00915527
0.0149536	-0.00854492
-0.00396729	-0.00701904
-0.0183105	-0.00579834
-0.0274658	-0.00640869
-0.0143433	-0.00762939
-0.0177002	-0.0088501
-0.0375366	-0.00946045
-0.0601196	-0.00946045
-0.0631714	-0.00976563
-0.0619507	-0.0112915
-0.0323486	-0.0137329
0.00396729	-0.0158691
0.0585938	-0.0180054
0.083313	-0.0210571
0.0717163	-0.0250244
0.0338745	-0.0280762
0.0106812	-0.0302124
0	-0.0314331
-0.0146484	-0.0326538
-0.0338745	-0.0338745
-0.0372314	-0.0360107
-0.0274658	-0.0372314
-0.0219727	-0.0378418
-0.0308228	-0.038147
-0.0439453	-0.0366211
-0.0189209	-0.0335693
-0.00762939	-0.0302124
-0.027771	-0.0265503
-0.0500488	-0.0231934
-0.0320435	-0.0186157
-0.012207	-0.0140381
0.017395	-0.00915527
0.057373	-0.00335693
0.100098	0.00274658
0.118713	0.00823975
0.128784	0.0134277
0.138855	0.0177002
0.0994873	0.0219727
0.0378418	0.0274658
-0.0231934	0.0323486
-0.0512695	0.0357056
-0.0848389	0.0378418
-0.119324	0.0396729
-0.140076	0.0402832
-0.1474	0.038147
-0.151672	0.0363159
-0.169983	0.0378418
-0.110168	0.0405884
-0.00610352	0.0424194
0.0839233	0.0436401
0.114136	0.0463867
0.128174	0.0515747
0.142822	0.0585938
0.12085	0.0656128
0.072937	0.0701904
0.0158691	0.0720215
-0.00976563	0.0717163
-0.0146484	0.071106
-0.0289917	0.0695801
-0.0326538	0.0668335
-0.0418091	0.0640869
-0.0466919	0.0613403
-0.0408936	0.0576782
-0.0271606	0.0527954
0.00366211	0.0476074
0.0308228	0.0415039
0.0534058	0.0338745
0.0680542	0.0247192
0.0799561	0.0149536
0.0662231	0.00427246
0.0378418	-0.00640869
0.0201416	-0.017395
0.0161743	-0.0274658
0.00854492	-0.0350952
-0.0161743	-0.0408936
-0.0473022	-0.0454712
-0.0701904	-0.0500488
-0.0775146	-0.0534058
-0.0869751	-0.0558472
-0.0805664	-0.0582886
-0.0787354	-0.0601196
-0.0567627	-0.062561
-0.00946045	-0.0656128
0.032959	-0.0689697
0.0396729	-0.0714111
0.0357056	-0.0714111
0.0665283	-0.0704956
0.0772095	-0.0692749
0.0653076	-0.0683594
0.0378418	-0.0668335
0.00305176	-0.0643921
-0.0366211	-0.0640869
-0.0726318	-0.0665283
-0.0888062	-0.0717163
-0.0830078	-0.0775146
-0.0662231	-0.0814819
-0.0732422	-0.0827026
-0.0695801	-0.0802612
-0.0396729	-0.0741577
0.0088501	-0.0631714
0.0692749	-0.0436401
0.0872803	-0.010376
0.0964355	0.0405884
0.0796509	0.108337
0.0585938	0.189209
0.0488281	0.278625
0.0109863	0.374146
-0.00671387	0.473633
-0.00976563	0.576782
-0.000915527	0.679626
-0.00396729	0.773315
-0.0393677	0.844727
-0.0424194	0.883179
-0.00366211	0.881653
0.0570679	0.838013
0.09552	0.754089
0.108032	0.634766
0.127258	0.487976
0.134888	0.321655
0.109253	0.148621
0.0436401	-0.0186157
-0.0515747	-0.167542
-0.169373	-0.287781
-0.275574	-0.372009
-0.344849	-0.415955
-0.354919	-0.422974
-0.337524	-0.399475
-0.443115	-0.354309
-0.553284	-0.297852
-0.40802	-0.238342
0.0915527	-0.183105
0.784302	-0.137024
1.37115	-0.10437
1.65405	-0.0842285
1.52954	-0.0738525
0.995483	-0.0708008
0.231018	-0.0723267
-0.529175	-0.0759888
-1.13617	-0.0805664
-1.51276	-0.0845337
-1.64886	-0.0875854
-1.5686	-0.0888062
-1.26678	-0.0900269
-0.735779	-0.0912476
-0.00213623	-0.090332
0.758362	-0.0869751
1.30707	-0.0817871
1.51276	-0.0759888
1.36902	-0.071106
0.971069	-0.0671387
0.461121	-0.0640869
-0.0338745	-0.06073
-0.426941	-0.057373
-0.695801	-0.0552368
-0.864868	-0.0549316
-0.926514	-0.055542
-0.837708	-0.0558472
-0.596008	-0.0576782
-0.227966	-0.0601196
0.19928	-0.0619507
0.580139	-0.062561
0.848083	-0.0619507
0.927429	-0.0598145
0.811157	-0.057373
0.542603	-0.0552368
0.197144	-0.0543213
-0.123901	-0.0527954
-0.369263	-0.0494385
-0.53772	-0.0454712
-0.59021	-0.0418091
-0.531006	-0.0393677
-0.386047	-0.0384521
-0.178833	-0.0384521
0.00946045	-0.0393677
0.135193	-0.0396729
0.180664	-0.0393677
0.145874	-0.0387573
0.0701904	-0.0375366
0.0338745	-0.0357056
0.00335693	-0.0332642
0.00671387	-0.0314331
0.0238037	-0.0302124
0.0802612	-0.0292969
0.169983	-0.0268555
0.258789	-0.0231934
0.307007	-0.0204468
0.309448	-0.0198364
0.266418	-0.0198364
0.174561	-0.0204468
0.0857544	-0.020752
-0.0415039	-0.0201416
-0.185547	-0.0183105
-0.325623	-0.0158691
-0.453796	-0.0128174
-0.494995	-0.00976563
-0.470276	-0.00640869
-0.379944	-0.00213623
-0.244751	0.00183105
-0.133057	0.00518799
-0.0375366	0.00732422
0.043335	0.00915527
0.11261	0.0106812
0.171814	0.0128174
0.215759	0.0158691
0.244751	0.0195313
0.205994	0.0238037
0.179443	0.0283813
0.236511	0.0335693
0.248108	0.0402832
0.154114	0.0482178
0.0427246	0.0564575
0.0158691	0.0646973
0.0543213	0.0714111
0.0820923	0.0772095
0.0650024	0.0814819
-0.00823975	0.0848389
-0.0857544	0.0875854
-0.149841	0.0900269
-0.136719	0.0933838
-0.0848389	0.0973511
-0.0924683	0.102844
-0.121155	0.109863
-0.137024	0.117188
-0.120239	0.123596
-0.0994873	0.130005
-0.0631714	0.136719
-0.0140381	0.143433
0.0308228	0.148621
0.0701904	0.152283
0.0979614	0.153809
0.104065	0.153503
0.0906372	0.151672
0.0372314	0.150146
-0.0653076	0.148315
-0.110779	0.14679
0.0344849	0.144958
0.161133	0.141907
0.0628662	0.137634
-0.0271606	0.132751
-0.0369263	0.127258
-0.00579834	0.12085
-0.0213623	0.113525
-0.0616455	0.10437
-0.0524902	0.0949097
-0.0369263	0.0854492
-0.00671387	0.0759888
0.0186157	0.0656128
0.0424194	0.0558472
0.0448608	0.0466919
0.0430298	0.0384521
0.0408936	0.0305176
0.0427246	0.0238037
0.0192261	0.017395
-0.00396729	0.0112915
-0.00823975	0.00610352
-0.0125122	0.00183105
-0.0192261	-0.00213623
-0.0588989	-0.00549316
-0.0662231	-0.00854492
-0.0674438	-0.0106812
-0.0259399	-0.0119019
0.0244141	-0.0125122
0.0650024	-0.0134277
0.0933838	-0.0146484
0.0900269	-0.0161743
0.0570679	-0.0180054
-0.00823975	-0.0195313
-0.0750732	-0.0210571
-0.146179	-0.0228882
-0.176697	-0.0253296
-0.19043	-0.0283813
-0.211792	-0.0305176
-0.30365	-0.0320435
-0.387878	-0.0332642
-0.426331	-0.03479
-0.0375366	-0.0354004
0.762939	-0.0344849
1.38245	-0.0326538
1.45782	-0.0305176
0.986023	-0.0289917
0.175476	-0.0286865
-0.637512	-0.0292969
-1.16516	-0.0296021
-1.29547	-0.0296021
-1.03943	-0.0305176
-0.566101	-0.0323486
-0.109558	-0.0341797
0.233459	-0.0360107
0.428467	-0.0366211
0.483704	-0.0363159
0.428467	-0.0363159
0.368347	-0.0378418
0.317688	-0.0390625
0.274658	-0.038147
0.228271	-0.0338745
0.136108	-0.0289917
-0.00762939	-0.0253296
-0.1651	-0.0231934
-0.301208	-0.0210571
-0.404053	-0.0183105
-0.430298	-0.0149536
-0.363464	-0.012207
-0.229492	-0.0100708
-0.0692749	-0.0088501
0.0640869	-0.00823975
0.157166	-0.00915527
0.203857	-0.0115967
0.230103	-0.0146484
0.229492	-0.0164795
0.203247	-0.0164795
0.144653	-0.0161743
0.0671387	-0.0170898
0.00579834	-0.0183105
-0.0506592	-0.0180054
-0.114746	-0.0164795
-0.132446	-0.0161743
-0.134583	-0.0167847
-0.103149	-0.0177002
-0.0845337	-0.0186157
-0.0491333	-0.0189209
-0.0146484	-0.0189209
0.0280762	-0.0192261
0.0637817	-0.0195313
0.0674438	-0.0192261
0.0576782	-0.0183105
0.0247192	-0.0167847
0.00671387	-0.015564
0.00488281	-0.0149536
-0.00732422	-0.0146484
-0.0106812	-0.0152588
-0.0323486	-0.0158691
-0.0540161	-0.0170898
-0.0784302	-0.0192261
-0.0494385	-0.0210571
0.0152588	-0.0213623
0.0701904	-0.0201416
0.0915527	-0.0186157
0.0643921	-0.0177002
0.0256348	-0.0170898
-0.00335693	-0.0158691
0.00732422	-0.0134277
0.00457764	-0.0115967
0.00549316	-0.0112915
-0.0152588	-0.0128174
-0.0299072	-0.0146484
-0.050354	-0.0170898
-0.043335	-0.0180054
-0.0335693	-0.0186157
-0.0158691	-0.0198364
0.0408936	-0.0204468
0.0628662	-0.0204468
0.0515747	-0.0198364
0.06073	-0.0189209
0.0576782	-0.0183105
0.0360107	-0.0189209
-0.022583	-0.020752
-0.0549316	-0.0228882
-0.0811768	-0.0253296
-0.0680542	-0.027771
-0.0360107	-0.0308228
-0.012207	-0.0338745
-0.000305176	-0.0363159
-0.0201416	-0.0375366
-0.0012207	-0.0369263
0.0231934	-0.03479
0.045166	-0.0311279
0.0479126	-0.0268555
0.0109863	-0.0244141
-0.0201416	-0.0213623
-0.0323486	-0.017395
-0.0445557	-0.0125122
-0.0332642	-0.00823975
-0.0234985	-0.00488281
-0.0256348	-0.00213623
-0.000610352	0.000305176
0.0292969	0.00244141
0.0448608	0.00518799
0.0543213	0.00946045
0.0613403	0.0146484
0.0619507	0.0204468
0.0717163	0.0256348
0.0637817	0.0299072
0.0256348	0.0344849
-0.0234985	0.039978
-0.0704956	0.0445557
-0.0891113	0.0473022
-0.090332	0.0485229
-0.0823975	0.0488281
-0.0241089	0.0485229
0.0180054	0.0485229
0.0320435	0.0488281
0.00701904	0.0494385
-0.0250244	0.0506592
-0.0543213	0.0524902
-0.0509644	0.0540161
-0.0283813	0.0561523
0.0195313	0.0579834
0.0518799	0.0582886
0.0518799	0.0561523
0.0369263	0.0534058
0.0274658	0.0494385
-0.00183105	0.0427246
0.00610352	0.0338745
0.0180054	0.0238037
0.0180054	0.0137329
-0.0180054	0.00488281
-0.0396729	-0.00274658
-0.0512695	-0.0100708
-0.0177002	-0.0167847
0.00946045	-0.0238037
0.0469971	-0.0314331
0.0680542	-0.0393677
0.0796509	-0.0460815
0.0814819	-0.0509644
0.0558472	-0.0552368
0.0274658	-0.0604248
-0.00244141	-0.0662231
-0.0112915	-0.0698853
-0.032959	-0.071106
-0.0750732	-0.0708008
-0.0857544	-0.0695801
-0.107117	-0.0674438
-0.0765991	-0.0650024
-0.071106	-0.0631714
-0.0372314	-0.0622559
-0.00335693	-0.0604248
0.0228882	-0.0588989
0.0430298	-0.0595093
0.0543213	-0.0619507
0.0616455	-0.0650024
0.0628662	-0.0701904
0.0344849	-0.0775146
-0.00915527	-0.0857544
-0.0369263	-0.0918579
-0.0134277	-0.0939941
-0.0244141	-0.0921631
-0.00305176	-0.0866699
0.0131226	-0.0759888
0.0292969	-0.0576782
0.0396729	-0.0265503
0.0411987	0.022583
0.0238037	0.0891113
-0.027771	0.169373
-0.0396729	0.26001
-0.0552368	0.357666
-0.0531006	0.460205
-0.0534058	0.567017
-0.0421143	0.674744
-0.0408936	0.775146
-0.0463867	0.855103
-0.0549316	0.902405
-0.0354004	0.908508
0.0421143	0.870056
0.122681	0.787659
0.213013	0.666199
0.267639	0.513611
0.279846	0.340271
0.211182	0.158691
0.0900269	-0.0161743
-0.101929	-0.171814
-0.291748	-0.297546
-0.43335	-0.386658
-0.500183	-0.435486
-0.481262	-0.444641
-0.379333	-0.419617
-0.403137	-0.370789
-0.560608	-0.310974
-0.601807	-0.250244
-0.17334	-0.196228
0.609436	-0.151978
1.47827	-0.119629
2.04193	-0.0991821
2.0813	-0.0878906
1.58966	-0.083313
0.744324	-0.0827026
-0.206299	-0.0827026
-1.05774	-0.0808716
-1.64398	-0.0793457
-1.9281	-0.0793457
-1.93909	-0.0802612
-1.70898	-0.0817871
-1.27197	-0.0836182
-0.545044	-0.085144
0.25238	-0.0875854
0.844116	-0.0897217
1.28052	-0.090332
1.41022	-0.0891113
1.37115	-0.0872803
1.11206	-0.0836182
0.241699	-0.078125
-0.0296021	-0.072937
0.419922	-0.0680542
0.187378	-0.0640869
-0.553894	-0.0622559
-1.29639	-0.0616455
-1.47766	-0.0619507
-1.1795	-0.0628662
-0.585938	-0.0637817
0.428467	-0.0650024
1.40289	-0.0656128
1.65009	-0.0656128
1.2384	-0.0646973
0.608521	-0.0628662
0.0460815	-0.06073
-0.362244	-0.0588989
-0.617371	-0.057373
-0.702515	-0.0564575
-0.65094	-0.0564575
-0.539856	-0.0558472
-0.415039	-0.0537109
-0.26001	-0.0509644
-0.134583	-0.0485229
-0.0259399	-0.0463867
0.0402832	-0.0454712
0.0842285	-0.0448608
0.111694	-0.0424194
0.132446	-0.039978
0.140381	-0.0405884
0.131531	-0.0430298
0.124207	-0.045166
0.134888	-0.0460815
0.151978	-0.0457764
0.176392	-0.0448608
0.191345	-0.043335
0.197754	-0.0408936
0.181885	-0.0378418
0.119934	-0.0332642
0.0164795	-0.0280762
-0.0610352	-0.0231934
-0.134888	-0.0183105
-0.195923	-0.0149536
-0.229492	-0.0128174
-0.230103	-0.0112915
-0.21637	-0.00854492
-0.17395	-0.00457764
-0.119629	0
-0.0784302	0.00488281
-0.0402832	0.0088501
0.0128174	0.012207
0.0613403	0.0167847
0.0778198	0.022583
0.0927734	0.0289917
0.0973511	0.0335693
0.0668335	0.0372314
0.0750732	0.0411987
0.115662	0.0454712
0.118713	0.0488281
0.0912476	0.0518799
0.0323486	0.055542
0.000915527	0.06073
0.00640869	0.0665283
-0.000305176	0.0726318
-0.0482178	0.0778198
-0.0146484	0.083313
0.0509644	0.0888062
0.0708008	0.0939941
0.0637817	0.0994873
0.0326538	0.104065
-0.020752	0.106812
-0.0857544	0.108948
-0.11322	0.111694
-0.134583	0.115967
-0.119019	0.12085
-0.0964355	0.125427
-0.083313	0.128174
-0.0402832	0.130615
0.00396729	0.134277
0.0460815	0.138245
0.0814819	0.142212
0.0787354	0.144653
0.0570679	0.145569
0.0274658	0.146179
0.00244141	0.145874
0.00518799	0.143738
0.0280762	0.140076
0.0396729	0.136719
0.0332642	0.133667
0.0128174	0.13092
-0.00549316	0.127563
-0.0357056	0.123596
-0.0653076	0.118713
-0.0991821	0.112
-0.0958252	0.10437
-0.0448608	0.0964355
0.0198364	0.0863647
0.0595093	0.0747681
0.0970459	0.0640869
0.119629	0.0543213
0.06073	0.045166
-0.00549316	0.0366211
-0.0875854	0.0292969
-0.10437	0.022583
-0.0952148	0.0167847
-0.0579834	0.0134277
-0.0170898	0.0119019
0.0350952	0.0109863
0.0704956	0.00915527
0.125732	0.00610352
0.155945	0.00244141
0.192566	-0.00213623
0.186768	-0.00640869
0.127869	-0.010376
0.0601196	-0.0140381
-0.00610352	-0.017395
-0.0732422	-0.020752
-0.127869	-0.0244141
-0.163269	-0.0274658
-0.212708	-0.0286865
-0.20874	-0.0289917
-0.173035	-0.0286865
-0.209961	-0.0289917
-0.325012	-0.0296021
-0.437622	-0.0299072
-0.423279	-0.0296021
0.117493	-0.0283813
0.901489	-0.0280762
1.34796	-0.0283813
1.25	-0.0286865
0.643616	-0.0274658
-0.169373	-0.0262451
-0.820923	-0.0253296
-1.10443	-0.0247192
-1.11053	-0.0234985
-0.836487	-0.0228882
-0.447998	-0.0213623
-0.098877	-0.0183105
0.204468	-0.0149536
0.380554	-0.0112915
0.490417	-0.00823975
0.511475	-0.00518799
0.478516	-0.00213623
0.391541	0.0012207
0.22644	0.00457764
0.0588989	0.00671387
-0.128174	0.00793457
-0.249939	0.00823975
-0.313721	0.00793457
-0.302734	0.00732422
-0.217896	0.00579834
-0.133667	0.00457764
-0.0292969	0.00274658
0.0604248	0.00152588
0.152283	0.000915527
0.198669	0
0.217285	-0.000305176
0.194397	0.000610352
0.143738	0.00213623
0.0976563	0.00305176
0.0830078	0.00396729
0.0878906	0.00457764
0.0616455	0.00518799
0.0164795	0.00640869
-0.038147	0.00762939
-0.085144	0.00854492
-0.0961304	0.0088501
-0.104675	0.00915527
-0.126343	0.00976563
-0.136719	0.0106812
-0.143127	0.0106812
-0.0878906	0.00946045
-0.0344849	0.00854492
-0.015564	0.00762939
-0.00640869	0.00640869
0	0.00488281
-0.0253296	0.00305176
-0.0604248	0.000915527
-0.0732422	-0.000305176
-0.0637817	0.000305176
-0.0579834	0.00152588
-0.0534058	0.00396729
-0.0106812	0.00732422
0.00152588	0.010376
0.0354004	0.0125122
0.0662231	0.0140381
0.0762939	0.0146484
0.10498	0.0149536
0.104675	0.0137329
0.110474	0.0115967
0.115051	0.00823975
0.0772095	0.00335693
0.0106812	-0.0012207
-0.0369263	-0.00518799
-0.0698853	-0.00823975
-0.0775146	-0.0106812
-0.0753784	-0.012207
-0.0411987	-0.0125122
-0.00701904	-0.0115967
0.0354004	-0.0100708
0.0527954	-0.00793457
0.0521851	-0.00671387
0.0305176	-0.00610352
0.0088501	-0.00457764
0.00732422	-0.00366211
0.00366211	-0.00457764
-0.000610352	-0.00793457
0.00244141	-0.0128174
0.0262451	-0.0177002
0.00976563	-0.0210571
0.015564	-0.0231934
-0.00549316	-0.0238037
-0.0143433	-0.0238037
-0.010376	-0.0238037
-0.0244141	-0.0234985
-0.0579834	-0.022583
-0.0918579	-0.020752
-0.0985718	-0.0180054
-0.085144	-0.0143433
-0.0588989	-0.0109863
-0.0158691	-0.00854492
0.0204468	-0.00701904
0.0738525	-0.00549316
0.0738525	-0.00305176
0.0643921	-0.000305176
0.0265503	0.00305176
0.00946045	0.00640869
0.00732422	0.010376
0.0106812	0.0143433
0.0460815	0.0177002
0.0485229	0.0204468
0.0326538	0.0241089
0.0152588	0.0286865
0.0109863	0.0335693
0.00152588	0.0384521
-0.0164795	0.0427246
-0.0115967	0.0473022
-0.0280762	0.0518799
-0.0192261	0.055542
-0.0305176	0.0588989
-0.0305176	0.0610352
-0.0454712	0.0622559
-0.0485229	0.062561
-0.0241089	0.0628662
0.00366211	0.0634766
0.0210571	0.0640869
0.0115967	0.0646973
0.00823975	0.0653076
0.0158691	0.0656128
0.0366211	0.0662231
0.0448608	0.0668335
0.0378418	0.0656128
0.0332642	0.0622559
0.022583	0.0576782
-0.0170898	0.0524902
-0.0405884	0.0454712
-0.0436401	0.0363159
-0.0460815	0.0259399
-0.0543213	0.0158691
-0.0619507	0.00640869
-0.0662231	-0.00213623
-0.055542	-0.0100708
-0.0100708	-0.017395
0.0564575	-0.0241089
0.106201	-0.0299072
0.10376	-0.0354004
0.0683594	-0.0408936
0.0271606	-0.0463867
-0.00335693	-0.050354
-0.0131226	-0.0527954
-0.00244141	-0.0549316
0.0131226	-0.0570679
0.0186157	-0.0582886
0.00549316	-0.0582886
0.0109863	-0.057373
0.0125122	-0.0558472
0.00396729	-0.0549316
-0.0131226	-0.0552368
-0.0479126	-0.055542
-0.0720215	-0.0570679
-0.071106	-0.0592041
-0.0540161	-0.0622559
-0.0292969	-0.065918
-0.0234985	-0.0708008
-0.0521851	-0.0772095
-0.119019	-0.0845337
-0.145264	-0.0930786
0.0805664	-0.101013
0.314331	-0.105286
0.361328	-0.103149
0.267334	-0.0946045
0.0857544	-0.0805664
-0.109253	-0.0588989
-0.247498	-0.0238037
-0.302429	0.0280762
-0.259705	0.0973511
-0.140381	0.181274
-0.010376	0.276489
0.0866699	0.379639
0.166321	0.487671
0.203552	0.598145
0.166626	0.706787
0.0762939	0.805969
-0.0119019	0.882568
-0.0668335	0.924988
-0.0637817	0.925903
-0.00427246	0.881348
0.0808716	0.792847
0.16571	0.665283
0.205688	0.507202
0.180359	0.328369
0.0723267	0.143738
-0.0985718	-0.0314331
-0.283203	-0.184937
-0.429382	-0.306702
-0.506897	-0.389709
-0.506897	-0.431519
-0.405884	-0.435486
-0.209656	-0.407715
-0.093689	-0.357361
-0.227661	-0.296021
-0.369873	-0.233765
-0.166931	-0.179443
0.453186	-0.137634
1.20789	-0.108948
1.74469	-0.0924683
1.85791	-0.0845337
1.47003	-0.0827026
0.681763	-0.0839233
-0.237427	-0.0857544
-1.02081	-0.0869751
-1.54175	-0.0878906
-1.76941	-0.0894165
-1.74805	-0.0900269
-1.49872	-0.0894165
-1.04309	-0.088501
-0.388184	-0.0866699
0.178528	-0.0848389
0.604248	-0.083313
0.948181	-0.0817871
1.19904	-0.0796509
1.27319	-0.0765991
1.14258	-0.0732422
0.858765	-0.0698853
0.513	-0.0665283
0.173645	-0.0631714
-0.142212	-0.0601196
-0.451965	-0.0579834
-0.724792	-0.0567627
-0.890503	-0.0564575
-0.875549	-0.0576782
-0.670471	-0.0592041
-0.314331	-0.0598145
0.11322	-0.0598145
0.480652	-0.0601196
0.677795	-0.0604248
0.671997	-0.0610352
0.491638	-0.0604248
0.212402	-0.0588989
-0.0714111	-0.057373
-0.303345	-0.055542
-0.432434	-0.0534058
-0.428467	-0.0515747
-0.338135	-0.0506592
-0.227661	-0.0488281
-0.123901	-0.0454712
-0.0302124	-0.0415039
0.0393677	-0.0387573
0.0827026	-0.0369263
0.108643	-0.0350952
0.128174	-0.0332642
0.140381	-0.0305176
0.127869	-0.027771
0.100708	-0.0250244
0.0793457	-0.0238037
0.0668335	-0.0231934
0.0527954	-0.0228882
0.0567627	-0.0228882
0.0842285	-0.0234985
0.105896	-0.0238037
0.101318	-0.0231934
0.0650024	-0.0219727
0.0341797	-0.020752
0.0280762	-0.0195313
0.00732422	-0.0177002
-0.0738525	-0.0143433
-0.19165	-0.010376
-0.29541	-0.00640869
-0.357666	-0.00213623
-0.349731	0.00244141
-0.275574	0.00762939
-0.166626	0.0128174
-0.0469971	0.0183105
0.065918	0.0234985
0.168457	0.0280762
0.258179	0.0317383
0.291748	0.03479
0.270386	0.0378418
0.217285	0.0408936
0.138855	0.0445557
0.045166	0.0488281
-0.0283813	0.0524902
-0.0567627	0.055542
-0.0418091	0.0592041
-0.00762939	0.0643921
0.0100708	0.0704956
0.0204468	0.0772095
0.0439453	0.0842285
0.057373	0.0906372
0.0283813	0.0961304
-0.0180054	0.101624
-0.0527954	0.107117
-0.0656128	0.112
-0.0473022	0.116882
-0.0183105	0.12207
-0.00610352	0.127258
0.00671387	0.132141
-0.0177002	0.136108
-0.0653076	0.138855
-0.100708	0.140991
-0.103149	0.143433
-0.0875854	0.146179
-0.0653076	0.147705
-0.071106	0.148315
-0.0906372	0.148926
-0.0753784	0.149536
-0.0363159	0.149231
0.0280762	0.148926
0.0997925	0.148926
0.119934	0.148315
0.0878906	0.146484
0.050354	0.144043
0.0143433	0.140381
-0.0106812	0.133972
0.000915527	0.125427
0.0106812	0.115967
0.00854492	0.105591
0.017395	0.0933838
0.0283813	0.0808716
0.0350952	0.0692749
0.0183105	0.057373
0.0216675	0.0448608
0.0344849	0.0332642
0.057373	0.0234985
0.0738525	0.015564
0.125122	0.00946045
0.141602	0.00488281
0.0912476	0.0012207
0.0466919	-0.00244141
0.0149536	-0.00518799
-0.0299072	-0.00640869
-0.0662231	-0.00732422
-0.072937	-0.00762939
-0.0756836	-0.00732422
-0.0961304	-0.00762939
-0.136719	-0.00915527
-0.122375	-0.0109863
-0.0976563	-0.0128174
-0.115051	-0.0140381
-0.151367	-0.0149536
-0.150757	-0.015564
-0.157776	-0.017395
-0.155029	-0.0201416
-0.186768	-0.022583
-0.258484	-0.0250244
-0.342407	-0.0274658
-0.162964	-0.0299072
0.526733	-0.0317383
1.26678	-0.032959
1.48712	-0.032959
1.06079	-0.0323486
0.211792	-0.0314331
-0.618591	-0.0305176
-1.11176	-0.0296021
-1.20544	-0.0283813
-0.895386	-0.0265503
-0.433655	-0.0244141
-0.0723267	-0.0231934
0.19989	-0.0219727
0.455017	-0.020752
0.595398	-0.0186157
0.549927	-0.0158691
0.451965	-0.0131226
0.370483	-0.010376
0.187988	-0.00793457
-0.0534058	-0.00640869
-0.211792	-0.00518799
-0.310974	-0.00396729
-0.414734	-0.00244141
-0.44342	-0.0012207
-0.332642	-0.000610352
