-0.00305176	-0.0558472	-0.0588989
-0.00274658	-0.0549316	-0.0576782
-0.00305176	-0.0540161	-0.0570679
-0.00396729	-0.0527954	-0.0567627
-0.00549316	-0.0515747	-0.0570679
-0.00762939	-0.0512695	-0.0588989
-0.00946045	-0.0524902	-0.0619507
-0.0106812	-0.0561523	-0.0668335
-0.0115967	-0.0628662	-0.0744629
-0.0134277	-0.071106	-0.0845337
-0.015564	-0.0784302	-0.0939941
-0.0149536	-0.085144	-0.100098
-0.0100708	-0.0918579	-0.101929
-0.000610352	-0.0985718	-0.0991821
0.0128174	-0.103455	-0.0906372
0.0311279	-0.103455	-0.0723267
0.0546265	-0.0946045	-0.039978
0.0827026	-0.0723267	0.010376
0.113525	-0.0354004	0.078125
0.145874	0.0149536	0.160828
0.179138	0.0769043	0.256042
0.211792	0.148926	0.360718
0.239563	0.231934	0.471497
0.257568	0.327454	0.585022
0.263367	0.43335	0.696716
0.255127	0.543213	0.79834
0.231628	0.645447	0.877075
0.193176	0.727844	0.921021
0.142822	0.78064	0.923462
0.0848389	0.797729	0.882568
0.0216675	0.776367	0.798035
-0.0415039	0.717163	0.675659
-0.098877	0.622253	0.523376
-0.144958	0.497742	0.352783
-0.176086	0.352783	0.176697
-0.19165	0.200195	0.00854492
-0.192566	0.0515747	-0.140991
-0.180359	-0.0808716	-0.26123
-0.157776	-0.188293	-0.346069
-0.1297	-0.262756	-0.392456
-0.0997925	-0.302734	-0.402527
-0.0717163	-0.310974	-0.38269
-0.0469971	-0.294189	-0.341187
-0.0283813	-0.259399	-0.287781
-0.0177002	-0.215149	-0.232849
-0.0152588	-0.169373	-0.184631
-0.0177002	-0.128479	-0.146179
-0.0216675	-0.0961304	-0.117798
-0.0256348	-0.0738525	-0.0994873
-0.0292969	-0.06073	-0.0900269
-0.0323486	-0.0546265	-0.0869751
-0.0338745	-0.0537109	-0.0875854
-0.0338745	-0.0561523	-0.0900269
-0.0323486	-0.0595093	-0.0918579
-0.0305176	-0.0616455	-0.0921631
-0.0289917	-0.0628662	-0.0918579
-0.0271606	-0.0653076	-0.0924683
-0.0256348	-0.0671387	-0.0927734
-0.0241089	-0.0668335	-0.0909424
-0.0222778	-0.0671387	-0.0894165
-0.0210571	-0.067749	-0.0888062
-0.0204468	-0.0674438	-0.0878906
-0.0198364	-0.0671387	-0.0869751
-0.0183105	-0.0674438	-0.0857544
-0.0170898	-0.067749	-0.0848389
-0.0158691	-0.0680542	-0.0839233
-0.015564	-0.0674438	-0.0830078
-0.0158691	-0.0668335	-0.0827026
-0.0164795	-0.065918	-0.0823975
-0.017395	-0.0650024	-0.0823975
-0.0183105	-0.0643921	-0.0827026
-0.0192261	-0.0637817	-0.0830078
-0.0192261	-0.0631714	-0.0823975
-0.0189209	-0.0628662	-0.0817871
-0.0183105	-0.0631714	-0.0814819
-0.0180054	-0.0634766	-0.0814819
-0.0180054	-0.0637817	-0.0817871
-0.0170898	-0.0637817	-0.0808716
-0.0158691	-0.0634766	-0.0793457
-0.0143433	-0.062561	-0.0769043
-0.0125122	-0.0610352	-0.0735474
-0.010376	-0.0595093	-0.0698853
-0.00915527	-0.0579834	-0.0671387
-0.00793457	-0.0567627	-0.0646973
-0.00610352	-0.0564575	-0.062561
-0.00457764	-0.0567627	-0.0613403
-0.00335693	-0.0570679	-0.0604248
-0.00274658	-0.0570679	-0.0598145
-0.00244141	-0.0567627	-0.0592041
-0.00152588	-0.0567627	-0.0582886
-0.000610352	-0.0567627	-0.057373
-0.000915527	-0.0564575	-0.057373
-0.000305176	-0.0558472	-0.0561523
0.00183105	-0.0561523	-0.0543213
0.00366211	-0.0561523	-0.0524902
0.00518799	-0.0561523	-0.0509644
0.00671387	-0.0552368	-0.0485229
0.00854492	-0.0546265	-0.0460815
0.010376	-0.0543213	-0.0439453
0.0119019	-0.0540161	-0.0421143
0.012207	-0.0534058	-0.0411987
0.0115967	-0.0524902	-0.0408936
0.0115967	-0.0512695	-0.0396729
0.0119019	-0.050354	-0.0384521
0.012207	-0.0497437	-0.0375366
0.0125122	-0.0491333	-0.0366211
0.0125122	-0.0485229	-0.0360107
0.0128174	-0.0473022	-0.0344849
0.0137329	-0.0460815	-0.0323486
0.0152588	-0.0454712	-0.0302124
0.0177002	-0.0448608	-0.0271606
0.020752	-0.0439453	-0.0231934
0.0234985	-0.0424194	-0.0189209
0.0262451	-0.0405884	-0.0143433
0.0283813	-0.0384521	-0.0100708
0.0305176	-0.0360107	-0.00549316
0.0320435	-0.0332642	-0.0012207
0.0335693	-0.0305176	0.00305176
0.03479	-0.0283813	0.00640869
0.0366211	-0.0268555	0.00976563
0.0387573	-0.0253296	0.0134277
0.0411987	-0.0238037	0.017395
0.0439453	-0.022583	0.0213623
0.0469971	-0.0213623	0.0256348
0.050354	-0.0201416	0.0302124
0.0537109	-0.0186157	0.0350952
0.057373	-0.0170898	0.0402832
0.06073	-0.0146484	0.0460815
0.0637817	-0.012207	0.0515747
0.0671387	-0.0100708	0.0570679
0.0698853	-0.00793457	0.0619507
0.0720215	-0.00579834	0.0662231
0.0732422	-0.00335693	0.0698853
0.0747681	-0.0012207	0.0735474
0.0772095	0.000915527	0.078125
0.0796509	0.00213623	0.0817871
0.0823975	0.00335693	0.0857544
0.0854492	0.00457764	0.0900269
0.0881958	0.00549316	0.093689
0.0900269	0.00701904	0.0970459
0.0915527	0.00823975	0.0997925
0.0918579	0.00976563	0.101624
0.0921631	0.0115967	0.10376
0.0927734	0.0128174	0.105591
0.0933838	0.0140381	0.107422
0.0927734	0.0152588	0.108032
0.0915527	0.0161743	0.107727
0.0909424	0.0161743	0.107117
0.090332	0.015564	0.105896
0.090332	0.0140381	0.10437
0.090332	0.0119019	0.102234
0.0900269	0.00915527	0.0991821
0.0888062	0.00640869	0.0952148
0.0869751	0.00305176	0.0900269
0.085144	-0.000610352	0.0845337
0.0823975	-0.00427246	0.078125
0.078125	-0.00701904	0.071106
0.0726318	-0.00915527	0.0634766
0.0665283	-0.0100708	0.0564575
0.0592041	-0.010376	0.0488281
0.0512695	-0.0100708	0.0411987
0.0427246	-0.0088501	0.0338745
0.0341797	-0.00762939	0.0265503
0.0268555	-0.00671387	0.0201416
0.020752	-0.00701904	0.0137329
0.0161743	-0.00762939	0.00854492
0.0125122	-0.00915527	0.00335693
0.00915527	-0.0109863	-0.00183105
0.00579834	-0.0137329	-0.00793457
0.00305176	-0.0167847	-0.0137329
0.000915527	-0.0198364	-0.0189209
-0.00152588	-0.022583	-0.0241089
-0.00396729	-0.0247192	-0.0286865
-0.00610352	-0.0271606	-0.0332642
-0.00854492	-0.0289917	-0.0375366
-0.010376	-0.0302124	-0.0405884
-0.0119019	-0.0308228	-0.0427246
-0.0125122	-0.0314331	-0.0439453
-0.0119019	-0.0323486	-0.0442505
-0.010376	-0.0332642	-0.0436401
-0.00823975	-0.0344849	-0.0427246
-0.00549316	-0.0357056	-0.0411987
-0.00366211	-0.0363159	-0.039978
-0.00305176	-0.0369263	-0.039978
-0.00335693	-0.0369263	-0.0402832
-0.00457764	-0.0369263	-0.0415039
-0.00610352	-0.0366211	-0.0427246
-0.00671387	-0.0372314	-0.0439453
-0.00671387	-0.038147	-0.0448608
-0.00671387	-0.038147	-0.0448608
-0.00793457	-0.0372314	-0.045166
-0.00854492	-0.0366211	-0.045166
-0.00823975	-0.0366211	-0.0448608
-0.00701904	-0.0369263	-0.0439453
-0.00671387	-0.0363159	-0.0430298
-0.00671387	-0.0357056	-0.0424194
-0.00671387	-0.0357056	-0.0424194
-0.00701904	-0.0357056	-0.0427246
-0.00793457	-0.0357056	-0.0436401
-0.00854492	-0.0357056	-0.0442505
-0.00823975	-0.0366211	-0.0448608
-0.00823975	-0.0378418	-0.0460815
-0.00854492	-0.0387573	-0.0473022
-0.0088501	-0.0396729	-0.0485229
-0.0088501	-0.0402832	-0.0491333
-0.00762939	-0.039978	-0.0476074
-0.00701904	-0.0393677	-0.0463867
-0.00671387	-0.0378418	-0.0445557
-0.00640869	-0.0366211	-0.0430298
-0.00579834	-0.0357056	-0.0415039
-0.00457764	-0.0350952	-0.0396729
-0.00274658	-0.0344849	-0.0372314
-0.0012207	-0.0335693	-0.03479
0.000610352	-0.0323486	-0.0317383
0.00152588	-0.0314331	-0.0299072
0.00183105	-0.0302124	-0.0283813
0.00152588	-0.0289917	-0.0274658
0.000610352	-0.0271606	-0.0265503
0.000305176	-0.0256348	-0.0253296
0.000305176	-0.0238037	-0.0234985
0.000610352	-0.022583	-0.0219727
0.00152588	-0.0216675	-0.0201416
0.00244141	-0.0210571	-0.0186157
0.00427246	-0.020752	-0.0164795
0.00732422	-0.0216675	-0.0143433
0.00976563	-0.0234985	-0.0137329
0.0119019	-0.0259399	-0.0140381
0.0125122	-0.0283813	-0.0158691
0.012207	-0.0305176	-0.0183105
0.0109863	-0.0317383	-0.020752
0.00976563	-0.0335693	-0.0238037
0.00854492	-0.0357056	-0.0271606
0.00762939	-0.0375366	-0.0299072
0.00671387	-0.0387573	-0.0320435
0.00518799	-0.0396729	-0.0344849
0.00427246	-0.0405884	-0.0363159
0.00518799	-0.0418091	-0.0366211
0.00762939	-0.0430298	-0.0354004
0.0100708	-0.0442505	-0.0341797
0.0134277	-0.045166	-0.0317383
0.0167847	-0.0457764	-0.0289917
0.0183105	-0.0457764	-0.0274658
0.0183105	-0.045166	-0.0268555
0.0170898	-0.0442505	-0.0271606
0.0158691	-0.043335	-0.0274658
0.0149536	-0.0427246	-0.027771
0.0146484	-0.0424194	-0.027771
0.0140381	-0.0427246	-0.0286865
0.012207	-0.0424194	-0.0302124
0.0088501	-0.0415039	-0.0326538
0.00549316	-0.039978	-0.0344849
0.00366211	-0.039978	-0.0363159
0.00335693	-0.0411987	-0.0378418
0.00427246	-0.0421143	-0.0378418
0.00427246	-0.0418091	-0.0375366
0.00396729	-0.0415039	-0.0375366
0.00335693	-0.0418091	-0.0384521
0.00335693	-0.0427246	-0.0393677
0.00427246	-0.0442505	-0.039978
0.00488281	-0.0457764	-0.0408936
0.00518799	-0.0476074	-0.0424194
0.00549316	-0.050354	-0.0448608
0.00579834	-0.0531006	-0.0473022
0.00549316	-0.0552368	-0.0497437
0.00518799	-0.057373	-0.0521851
0.00488281	-0.0588989	-0.0540161
0.00427246	-0.0604248	-0.0561523
0.00335693	-0.06073	-0.057373
0.00274658	-0.0598145	-0.0570679
0.00274658	-0.0585938	-0.0558472
0.00305176	-0.0576782	-0.0546265
0.00244141	-0.0561523	-0.0537109
0.000915527	-0.0537109	-0.0527954
-0.000305176	-0.0512695	-0.0515747
0.000610352	-0.050354	-0.0497437
0.00305176	-0.0506592	-0.0476074
0.00518799	-0.0515747	-0.0463867
0.00732422	-0.0524902	-0.045166
0.00915527	-0.0531006	-0.0439453
0.0106812	-0.0537109	-0.0430298
0.0115967	-0.0543213	-0.0427246
0.0112915	-0.0546265	-0.043335
0.010376	-0.0546265	-0.0442505
0.00946045	-0.0540161	-0.0445557
0.00854492	-0.0531006	-0.0445557
0.00701904	-0.0521851	-0.045166
0.00579834	-0.0509644	-0.045166
0.00518799	-0.0500488	-0.0448608
0.00518799	-0.050354	-0.045166
0.00701904	-0.0518799	-0.0448608
0.010376	-0.0540161	-0.0436401
0.0128174	-0.055542	-0.0427246
0.0134277	-0.0558472	-0.0424194
0.0131226	-0.055542	-0.0424194
0.0119019	-0.0540161	-0.0421143
0.010376	-0.0515747	-0.0411987
0.0088501	-0.0479126	-0.0390625
0.00732422	-0.043335	-0.0360107
0.00518799	-0.0378418	-0.0326538
0.00335693	-0.0317383	-0.0283813
0.00213623	-0.0259399	-0.0238037
0.00152588	-0.0204468	-0.0189209
0.00305176	-0.0158691	-0.0128174
0.00671387	-0.0128174	-0.00610352
0.0112915	-0.0115967	-0.000305176
0.0158691	-0.0115967	0.00427246
0.0195313	-0.0128174	0.00671387
0.0222778	-0.0143433	0.00793457
0.0244141	-0.0167847	0.00762939
0.0265503	-0.0198364	0.00671387
0.0280762	-0.0231934	0.00488281
0.0302124	-0.0262451	0.00396729
0.0344849	-0.0292969	0.00518799
0.039978	-0.0326538	0.00732422
0.0454712	-0.0350952	0.010376
0.050354	-0.0372314	0.0131226
0.0552368	-0.0384521	0.0167847
0.0610352	-0.0393677	0.0216675
0.0671387	-0.039978	0.0271606
0.072937	-0.039978	0.032959
0.0772095	-0.0384521	0.0387573
0.0790405	-0.0363159	0.0427246
0.0790405	-0.0350952	0.0439453
0.0787354	-0.0350952	0.0436401
0.078125	-0.0366211	0.0415039
0.0753784	-0.0378418	0.0375366
0.0717163	-0.0396729	0.0320435
0.0680542	-0.0424194	0.0256348
0.0646973	-0.0457764	0.0189209
0.0616455	-0.050354	0.0112915
0.0585938	-0.0561523	0.00244141
0.0549316	-0.0616455	-0.00671387
0.0497437	-0.065918	-0.0161743
0.0439453	-0.0689697	-0.0250244
0.0378418	-0.071106	-0.0332642
0.0320435	-0.072937	-0.0408936
0.0262451	-0.0738525	-0.0476074
0.0201416	-0.0741577	-0.0540161
0.0134277	-0.0732422	-0.0598145
0.00732422	-0.0720215	-0.0646973
0.00274658	-0.0714111	-0.0686646
-0.000305176	-0.071106	-0.0714111
-0.0012207	-0.071106	-0.0723267
-0.00152588	-0.0714111	-0.072937
-0.000610352	-0.0726318	-0.0732422
-0.000305176	-0.0735474	-0.0738525
0.000610352	-0.0744629	-0.0738525
0.00152588	-0.0753784	-0.0738525
0.00274658	-0.0765991	-0.0738525
0.00366211	-0.078125	-0.0744629
0.00427246	-0.0787354	-0.0744629
0.00457764	-0.0787354	-0.0741577
0.00457764	-0.0784302	-0.0738525
0.00518799	-0.0787354	-0.0735474
0.00579834	-0.0793457	-0.0735474
0.00549316	-0.0796509	-0.0741577
0.00366211	-0.0796509	-0.0759888
0.000610352	-0.0814819	-0.0808716
-0.000915527	-0.0863647	-0.0872803
-0.0012207	-0.0942993	-0.09552
-0.0012207	-0.102539	-0.10376
0.000305176	-0.110779	-0.110474
0.00549316	-0.118408	-0.112915
0.0137329	-0.124817	-0.111084
0.0259399	-0.129089	-0.103149
0.0430298	-0.129089	-0.0860596
0.0668335	-0.121765	-0.0549316
0.0970459	-0.104065	-0.00701904
0.130615	-0.0714111	0.0592041
0.164185	-0.0231934	0.140991
0.195618	0.0384521	0.23407
0.223999	0.112	0.335999
0.246582	0.196228	0.44281
0.260315	0.291748	0.552063
0.262756	0.396729	0.659485
0.25177	0.508118	0.759888
0.226135	0.61554	0.841675
0.186157	0.705261	0.891418
0.135193	0.765991	0.901184
0.0772095	0.791626	0.868835
0.0158691	0.780029	0.795898
-0.0448608	0.730591	0.68573
-0.0994873	0.645142	0.545654
-0.143738	0.529175	0.385437
-0.174561	0.39093	0.21637
-0.190735	0.239868	0.0491333
-0.191345	0.0878906	-0.103455
-0.177917	-0.0524902	-0.230408
-0.154114	-0.170288	-0.324402
-0.123291	-0.258179	-0.38147
-0.0894165	-0.313721	-0.403137
-0.0561523	-0.33783	-0.393982
-0.027771	-0.335388	-0.363159
-0.00610352	-0.31311	-0.319214
0.00823975	-0.279236	-0.270996
0.015564	-0.240173	-0.224609
0.0161743	-0.202026	-0.185852
0.0125122	-0.169373	-0.15686
0.00671387	-0.143738	-0.137024
0.000305176	-0.125427	-0.125122
-0.00488281	-0.114136	-0.119019
-0.00854492	-0.108337	-0.116882
-0.00976563	-0.106201	-0.115967
-0.00854492	-0.107117	-0.115662
-0.00579834	-0.109558	-0.115356
-0.00274658	-0.112	-0.114746
0.000610352	-0.114136	-0.113525
0.00274658	-0.115967	-0.11322
0.00335693	-0.117188	-0.113831
0.00305176	-0.117798	-0.114746
0.00305176	-0.118713	-0.115662
0.00274658	-0.119629	-0.116882
0.00274658	-0.120239	-0.117493
0.00213623	-0.120544	-0.118408
0.0012207	-0.120544	-0.119324
0.0012207	-0.120544	-0.119324
0.0012207	-0.12085	-0.119629
0.0012207	-0.121155	-0.119934
0.000610352	-0.120544	-0.119934
0.000610352	-0.119934	-0.119324
0.0012207	-0.119019	-0.117798
0.0012207	-0.117798	-0.116577
0.000915527	-0.115967	-0.115051
-0.000305176	-0.113831	-0.114136
-0.00152588	-0.111694	-0.11322
-0.0012207	-0.110779	-0.112
0.000610352	-0.110779	-0.110168
0.00366211	-0.111389	-0.107727
0.00579834	-0.111694	-0.105896
0.00701904	-0.111694	-0.104675
0.00793457	-0.111694	-0.10376
0.00854492	-0.111389	-0.102844
0.00976563	-0.110779	-0.101013
0.0109863	-0.109863	-0.098877
0.0115967	-0.108032	-0.0964355
0.0109863	-0.105286	-0.0942993
0.010376	-0.102844	-0.0924683
0.00976563	-0.101013	-0.0912476
0.0088501	-0.0997925	-0.0909424
0.00854492	-0.098877	-0.090332
0.00915527	-0.0985718	-0.0894165
0.010376	-0.0985718	-0.0881958
0.0119019	-0.0985718	-0.0866699
0.0128174	-0.098877	-0.0860596
0.0128174	-0.0991821	-0.0863647
0.0125122	-0.0991821	-0.0866699
0.0137329	-0.0994873	-0.0857544
0.015564	-0.100708	-0.085144
0.0177002	-0.102234	-0.0845337
0.0192261	-0.103149	-0.0839233
0.020752	-0.10376	-0.0830078
0.0228882	-0.10437	-0.0814819
0.0259399	-0.105591	-0.0796509
0.0289917	-0.106201	-0.0772095
0.0314331	-0.106812	-0.0753784
0.0341797	-0.107117	-0.072937
0.0369263	-0.106812	-0.0698853
0.0396729	-0.105591	-0.065918
0.0424194	-0.10376	-0.0613403
0.0436401	-0.101013	-0.057373
0.0442505	-0.0982666	-0.0540161
0.0445557	-0.09552	-0.0509644
0.045166	-0.0933838	-0.0482178
0.0473022	-0.0918579	-0.0445557
0.050354	-0.0912476	-0.0408936
0.0531006	-0.090332	-0.0372314
0.055542	-0.0894165	-0.0338745
0.0585938	-0.0888062	-0.0302124
0.0619507	-0.0881958	-0.0262451
0.0656128	-0.0872803	-0.0216675
0.0692749	-0.0863647	-0.0170898
0.0726318	-0.0854492	-0.0128174
0.0753784	-0.0839233	-0.00854492
0.0765991	-0.0814819	-0.00488281
0.0769043	-0.0787354	-0.00183105
0.0775146	-0.0762939	0.0012207
0.0775146	-0.0738525	0.00366211
0.0769043	-0.071106	0.00579834
0.0769043	-0.0689697	0.00793457
0.0769043	-0.0662231	0.0106812
0.0769043	-0.0631714	0.0137329
0.0769043	-0.0604248	0.0164795
0.0775146	-0.0579834	0.0195313
0.0790405	-0.0558472	0.0231934
0.0799561	-0.0531006	0.0268555
0.0811768	-0.050354	0.0308228
0.083313	-0.0473022	0.0360107
0.0863647	-0.0448608	0.0415039
0.0897217	-0.0430298	0.0466919
0.0927734	-0.0408936	0.0518799
0.0961304	-0.0393677	0.0567627
0.0997925	-0.038147	0.0616455
0.102844	-0.0372314	0.0656128
0.104675	-0.0360107	0.0686646
0.106201	-0.03479	0.0714111
0.107117	-0.0338745	0.0732422
0.107727	-0.0332642	0.0744629
0.107727	-0.0332642	0.0744629
0.107117	-0.0332642	0.0738525
0.105896	-0.0335693	0.0723267
0.105286	-0.0344849	0.0708008
0.10498	-0.0354004	0.0695801
0.103455	-0.0363159	0.0671387
0.100708	-0.0372314	0.0634766
0.0973511	-0.0378418	0.0595093
0.0933838	-0.0384521	0.0549316
0.0894165	-0.0390625	0.050354
0.0842285	-0.0393677	0.0448608
0.0778198	-0.0387573	0.0390625
0.0704956	-0.0384521	0.0320435
0.0628662	-0.038147	0.0247192
0.055542	-0.0378418	0.0177002
0.0494385	-0.038147	0.0112915
0.0436401	-0.0384521	0.00518799
0.0384521	-0.0387573	-0.000305176
0.03479	-0.0393677	-0.00457764
0.032959	-0.0402832	-0.00732422
0.0311279	-0.0415039	-0.010376
0.027771	-0.0427246	-0.0149536
0.0241089	-0.0436401	-0.0195313
0.0213623	-0.0442505	-0.0228882
0.0192261	-0.0448608	-0.0256348
0.0167847	-0.045166	-0.0283813
0.0137329	-0.0454712	-0.0317383
0.0106812	-0.0460815	-0.0354004
0.00823975	-0.0473022	-0.0390625
0.00610352	-0.0488281	-0.0427246
0.00396729	-0.0500488	-0.0460815
0.00305176	-0.0509644	-0.0479126
0.00244141	-0.0521851	-0.0497437
0.00213623	-0.0534058	-0.0512695
0.00305176	-0.0540161	-0.0509644
0.00488281	-0.0546265	-0.0497437
0.00701904	-0.0549316	-0.0479126
0.00946045	-0.0552368	-0.0457764
0.0112915	-0.055542	-0.0442505
0.0115967	-0.0552368	-0.0436401
0.0106812	-0.0540161	-0.043335
0.0106812	-0.0531006	-0.0424194
0.0112915	-0.0521851	-0.0408936
0.0109863	-0.0512695	-0.0402832
0.0100708	-0.0497437	-0.0396729
0.00915527	-0.0488281	-0.0396729
0.00823975	-0.0482178	-0.039978
0.00701904	-0.0479126	-0.0408936
0.00518799	-0.0469971	-0.0418091
0.00427246	-0.0460815	-0.0418091
0.00488281	-0.0448608	-0.039978
0.00671387	-0.0439453	-0.0372314
0.00854492	-0.0436401	-0.0350952
0.0106812	-0.043335	-0.0326538
0.0115967	-0.0421143	-0.0305176
0.0115967	-0.0405884	-0.0289917
0.0115967	-0.0396729	-0.0280762
0.0115967	-0.0390625	-0.0274658
0.012207	-0.0390625	-0.0268555
0.0125122	-0.0393677	-0.0268555
0.012207	-0.0396729	-0.0274658
0.0119019	-0.0402832	-0.0283813
0.0128174	-0.0411987	-0.0283813
0.0149536	-0.0427246	-0.027771
0.0167847	-0.0442505	-0.0274658
0.0180054	-0.045166	-0.0271606
0.0177002	-0.0442505	-0.0265503
0.017395	-0.0421143	-0.0247192
0.0180054	-0.0402832	-0.0222778
0.0189209	-0.0387573	-0.0198364
0.0189209	-0.0375366	-0.0186157
0.0177002	-0.0360107	-0.0183105
0.0149536	-0.03479	-0.0198364
0.0115967	-0.0335693	-0.0219727
0.00946045	-0.0326538	-0.0231934
0.00854492	-0.0323486	-0.0238037
0.00823975	-0.032959	-0.0247192
0.00762939	-0.0332642	-0.0256348
0.00793457	-0.0335693	-0.0256348
0.00946045	-0.0344849	-0.0250244
0.0115967	-0.03479	-0.0231934
0.0137329	-0.0344849	-0.020752
0.0161743	-0.0335693	-0.017395
0.0186157	-0.0323486	-0.0137329
0.020752	-0.0314331	-0.0106812
0.0222778	-0.0302124	-0.00793457
0.0222778	-0.0286865	-0.00640869
0.0216675	-0.0271606	-0.00549316
0.0222778	-0.0268555	-0.00457764
0.0234985	-0.0274658	-0.00396729
0.0241089	-0.0283813	-0.00427246
0.0238037	-0.0292969	-0.00549316
0.022583	-0.0299072	-0.00732422
0.0213623	-0.0308228	-0.00946045
0.0204468	-0.0317383	-0.0112915
0.0198364	-0.0332642	-0.0134277
0.0192261	-0.03479	-0.015564
0.0192261	-0.0363159	-0.0170898
0.0192261	-0.0375366	-0.0183105
0.0186157	-0.038147	-0.0195313
0.017395	-0.0378418	-0.0204468
0.0167847	-0.0372314	-0.0204468
0.0164795	-0.0372314	-0.020752
0.0164795	-0.0375366	-0.0210571
0.0180054	-0.0375366	-0.0195313
0.0201416	-0.0378418	-0.0177002
0.0222778	-0.0378418	-0.015564
0.0238037	-0.0378418	-0.0140381
0.0250244	-0.0375366	-0.0125122
0.0256348	-0.0369263	-0.0112915
0.0250244	-0.0363159	-0.0112915
0.0231934	-0.0360107	-0.0128174
0.0213623	-0.0354004	-0.0140381
0.0198364	-0.0350952	-0.0152588
0.0186157	-0.0350952	-0.0164795
0.0164795	-0.0354004	-0.0189209
0.0137329	-0.0350952	-0.0213623
0.0115967	-0.0344849	-0.0228882
0.0112915	-0.0338745	-0.022583
0.0119019	-0.0335693	-0.0216675
0.0115967	-0.0332642	-0.0216675
0.010376	-0.0317383	-0.0213623
0.00915527	-0.0292969	-0.0201416
0.00915527	-0.0265503	-0.017395
0.0106812	-0.0238037	-0.0131226
0.012207	-0.0204468	-0.00823975
0.0134277	-0.0167847	-0.00335693
0.0140381	-0.0137329	0.000305176
0.0149536	-0.0106812	0.00427246
0.0167847	-0.00732422	0.00946045
0.0189209	-0.00335693	0.015564
0.020752	0.000305176	0.0210571
0.022583	0.00335693	0.0259399
0.0250244	0.00518799	0.0302124
0.0274658	0.00610352	0.0335693
0.0296021	0.00610352	0.0357056
0.0314331	0.00579834	0.0372314
0.0332642	0.00488281	0.038147
0.0350952	0.00427246	0.0393677
0.038147	0.00305176	0.0411987
0.0424194	0.0012207	0.0436401
0.0476074	-0.00152588	0.0460815
0.0524902	-0.00427246	0.0482178
0.0570679	-0.00671387	0.050354
0.06073	-0.00793457	0.0527954
0.0640869	-0.00854492	0.055542
0.067749	-0.00823975	0.0595093
0.0701904	-0.00732422	0.0628662
0.0720215	-0.00579834	0.0662231
0.0714111	-0.00457764	0.0668335
0.0698853	-0.00396729	0.065918
0.0674438	-0.00457764	0.0628662
0.0650024	-0.00640869	0.0585938
0.062561	-0.00976563	0.0527954
0.0598145	-0.0143433	0.0454712
0.055542	-0.0189209	0.0366211
0.0509644	-0.0244141	0.0265503
0.0460815	-0.0296021	0.0164795
0.0411987	-0.03479	0.00640869
0.0366211	-0.0393677	-0.00274658
0.0323486	-0.043335	-0.0109863
0.0286865	-0.0457764	-0.0170898
0.0250244	-0.0469971	-0.0219727
0.0201416	-0.0469971	-0.0268555
0.0143433	-0.0460815	-0.0317383
0.0088501	-0.0442505	-0.0354004
0.00396729	-0.0424194	-0.0384521
0.000305176	-0.0415039	-0.0411987
-0.00244141	-0.0408936	-0.043335
-0.00488281	-0.0411987	-0.0460815
-0.00793457	-0.0415039	-0.0494385
-0.0115967	-0.0418091	-0.0534058
-0.0140381	-0.0430298	-0.0570679
-0.0143433	-0.0448608	-0.0592041
-0.0128174	-0.0469971	-0.0598145
-0.0115967	-0.0488281	-0.0604248
-0.0109863	-0.0500488	-0.0610352
-0.00976563	-0.0515747	-0.0613403
-0.00732422	-0.0534058	-0.06073
-0.00488281	-0.0546265	-0.0595093
-0.00305176	-0.0543213	-0.057373
-0.00183105	-0.0531006	-0.0549316
-0.000915527	-0.0515747	-0.0524902
0	-0.0512695	-0.0512695
0.00152588	-0.0540161	-0.0524902
0.00274658	-0.0598145	-0.0570679
0.00427246	-0.0683594	-0.0640869
0.00640869	-0.0769043	-0.0704956
0.0088501	-0.085144	-0.0762939
0.0128174	-0.0930786	-0.0802612
0.0183105	-0.098877	-0.0805664
0.0259399	-0.101013	-0.0750732
0.0372314	-0.0979614	-0.06073
0.0531006	-0.0866699	-0.0335693
0.072937	-0.062561	0.010376
0.0964355	-0.0247192	0.0717163
0.12207	0.0280762	0.150146
0.148315	0.0933838	0.241699
0.172119	0.167847	0.339966
0.19104	0.250244	0.441284
0.202942	0.341187	0.544128
0.205078	0.439758	0.644836
0.196838	0.542603	0.739441
0.175781	0.642395	0.818176
0.141296	0.727844	0.869141
0.0964355	0.787964	0.884399
0.0463867	0.814514	0.860901
-0.00640869	0.804749	0.79834
-0.0588989	0.759277	0.700378
-0.106201	0.681152	0.574951
-0.144348	0.574951	0.430603
-0.170593	0.446472	0.275879
-0.1828	0.30304	0.120239
-0.180054	0.155029	-0.0250244
-0.1651	0.0143433	-0.150757
-0.142212	-0.106506	-0.248718
-0.115356	-0.198975	-0.314331
-0.0866699	-0.260315	-0.346985
-0.0585938	-0.290833	-0.349426
-0.0338745	-0.2948	-0.328674
-0.0140381	-0.278931	-0.292969
-0.00152588	-0.248413	-0.249939
0.00335693	-0.210266	-0.206909
0.00305176	-0.172119	-0.169067
0.000610352	-0.13916	-0.13855
-0.00274658	-0.11322	-0.115967
-0.00518799	-0.0952148	-0.100403
-0.00762939	-0.0839233	-0.0915527
-0.00915527	-0.0778198	-0.0869751
-0.00946045	-0.0759888	-0.0854492
-0.00976563	-0.0772095	-0.0869751
-0.00946045	-0.0796509	-0.0891113
-0.00823975	-0.0830078	-0.0912476
-0.00701904	-0.0860596	-0.0930786
-0.00610352	-0.0881958	-0.0942993
-0.00610352	-0.0891113	-0.0952148
-0.00701904	-0.0881958	-0.0952148
-0.00823975	-0.0860596	-0.0942993
-0.0088501	-0.083313	-0.0921631
-0.00823975	-0.0805664	-0.0888062
-0.00579834	-0.0787354	-0.0845337
-0.00274658	-0.0775146	-0.0802612
-0.000305176	-0.0762939	-0.0765991
0.00183105	-0.0756836	-0.0738525
0.00244141	-0.0747681	-0.0723267
0.00213623	-0.0732422	-0.071106
0.00244141	-0.0717163	-0.0692749
0.00427246	-0.0714111	-0.0671387
0.00762939	-0.0720215	-0.0643921
0.0109863	-0.0723267	-0.0613403
0.012207	-0.0714111	-0.0592041
0.012207	-0.0695801	-0.057373
0.0125122	-0.0680542	-0.055542
0.0134277	-0.0668335	-0.0534058
0.0146484	-0.0662231	-0.0515747
0.0149536	-0.0653076	-0.050354
0.0152588	-0.0650024	-0.0497437
0.0146484	-0.0650024	-0.050354
0.0131226	-0.0653076	-0.0521851
0.0115967	-0.0662231	-0.0546265
0.0106812	-0.0674438	-0.0567627
0.0106812	-0.0683594	-0.0576782
0.0112915	-0.0686646	-0.057373
0.0128174	-0.0686646	-0.0558472
0.0146484	-0.0680542	-0.0534058
0.0164795	-0.0662231	-0.0497437
0.0180054	-0.0637817	-0.0457764
0.0198364	-0.0619507	-0.0421143
0.0219727	-0.0613403	-0.0393677
0.0244141	-0.0610352	-0.0366211
0.0268555	-0.0613403	-0.0344849
0.0292969	-0.0616455	-0.0323486
0.032959	-0.0628662	-0.0299072
0.0360107	-0.0643921	-0.0283813
0.0375366	-0.065918	-0.0283813
0.0387573	-0.0680542	-0.0292969
0.039978	-0.0701904	-0.0302124
0.0396729	-0.0714111	-0.0317383
0.0390625	-0.0717163	-0.0326538
0.0396729	-0.0714111	-0.0317383
0.0402832	-0.0701904	-0.0299072
0.039978	-0.0683594	-0.0283813
0.0390625	-0.0665283	-0.0274658
0.0375366	-0.0640869	-0.0265503
0.0363159	-0.06073	-0.0244141
0.0357056	-0.0570679	-0.0213623
0.0354004	-0.0540161	-0.0186157
0.0354004	-0.0506592	-0.0152588
0.0360107	-0.0473022	-0.0112915
0.0387573	-0.0454712	-0.00671387
0.0427246	-0.045166	-0.00244141
0.0466919	-0.0457764	0.000915527
0.0506592	-0.0463867	0.00427246
0.0549316	-0.0473022	0.00762939
0.0601196	-0.0491333	0.0109863
0.0650024	-0.0512695	0.0137329
0.0686646	-0.0531006	0.015564
0.0717163	-0.0546265	0.0170898
0.0747681	-0.0558472	0.0189209
0.0787354	-0.057373	0.0213623
0.0836182	-0.0595093	0.0241089
0.0888062	-0.0619507	0.0268555
0.0930786	-0.0637817	0.0292969
0.0964355	-0.0640869	0.0323486
0.098877	-0.0616455	0.0372314
0.100708	-0.0576782	0.0430298
0.102234	-0.0531006	0.0491333
0.103149	-0.0488281	0.0543213
0.103455	-0.0442505	0.0592041
0.103455	-0.0390625	0.0643921
0.102844	-0.032959	0.0698853
0.101624	-0.0271606	0.0744629
0.100708	-0.0219727	0.0787354
0.0994873	-0.0177002	0.0817871
0.0994873	-0.0158691	0.0836182
0.101318	-0.0164795	0.0848389
0.10437	-0.0186157	0.0857544
0.106812	-0.020752	0.0860596
0.107117	-0.0210571	0.0860596
0.106201	-0.0195313	0.0866699
0.10498	-0.017395	0.0875854
0.103455	-0.015564	0.0878906
0.101929	-0.0134277	0.088501
0.0994873	-0.0109863	0.088501
0.0964355	-0.0088501	0.0875854
0.0933838	-0.00762939	0.0857544
0.090332	-0.00640869	0.0839233
0.0866699	-0.00549316	0.0811768
0.0820923	-0.00518799	0.0769043
0.0759888	-0.00396729	0.0720215
0.0701904	-0.00213623	0.0680542
0.0650024	-0.000610352	0.0643921
0.0601196	0.000610352	0.06073
0.0546265	0.00152588	0.0561523
0.0485229	0.00274658	0.0512695
0.0418091	0.00335693	0.045166
0.0366211	0.00335693	0.039978
0.0320435	0.00274658	0.03479
0.027771	0.00152588	0.0292969
0.0250244	-0.000915527	0.0241089
0.0222778	-0.00366211	0.0186157
0.017395	-0.00610352	0.0112915
0.012207	-0.00823975	0.00396729
0.00793457	-0.0109863	-0.00305176
0.00518799	-0.0140381	-0.0088501
0.00274658	-0.0170898	-0.0143433
0.0012207	-0.0192261	-0.0180054
0	-0.020752	-0.020752
-0.00244141	-0.0213623	-0.0238037
-0.00579834	-0.0213623	-0.0271606
-0.0088501	-0.0219727	-0.0308228
-0.0109863	-0.0228882	-0.0338745
-0.0131226	-0.0231934	-0.0363159
-0.0164795	-0.022583	-0.0390625
-0.020752	-0.0213623	-0.0421143
-0.0244141	-0.0210571	-0.0454712
-0.0265503	-0.0219727	-0.0485229
-0.0274658	-0.0241089	-0.0515747
-0.0283813	-0.0268555	-0.0552368
-0.0296021	-0.0289917	-0.0585938
-0.0299072	-0.0305176	-0.0604248
-0.0286865	-0.0317383	-0.0604248
-0.0259399	-0.0326538	-0.0585938
-0.0222778	-0.0326538	-0.0549316
-0.0189209	-0.0323486	-0.0512695
-0.0177002	-0.0311279	-0.0488281
-0.0192261	-0.0286865	-0.0479126
-0.0219727	-0.0262451	-0.0482178
-0.0247192	-0.0241089	-0.0488281
-0.0262451	-0.0228882	-0.0491333
-0.027771	-0.0234985	-0.0512695
-0.0296021	-0.0253296	-0.0549316
-0.0314331	-0.027771	-0.0592041
-0.0326538	-0.0299072	-0.062561
-0.0326538	-0.0317383	-0.0643921
-0.0311279	-0.032959	-0.0640869
-0.027771	-0.032959	-0.06073
-0.0250244	-0.0314331	-0.0564575
-0.0238037	-0.0283813	-0.0521851
-0.0231934	-0.0247192	-0.0479126
-0.022583	-0.0210571	-0.0436401
-0.0213623	-0.0180054	-0.0393677
-0.0201416	-0.0161743	-0.0363159
-0.0189209	-0.0152588	-0.0341797
-0.0192261	-0.015564	-0.03479
-0.0198364	-0.0161743	-0.0360107
-0.0204468	-0.017395	-0.0378418
-0.0201416	-0.0192261	-0.0393677
-0.0195313	-0.0210571	-0.0405884
-0.0189209	-0.0219727	-0.0408936
-0.0186157	-0.0222778	-0.0408936
-0.0189209	-0.0210571	-0.039978
-0.0192261	-0.0192261	-0.0384521
-0.0195313	-0.0164795	-0.0360107
-0.0195313	-0.0131226	-0.0326538
-0.0186157	-0.0100708	-0.0286865
-0.0158691	-0.00854492	-0.0244141
-0.0131226	-0.00762939	-0.020752
-0.010376	-0.00671387	-0.0170898
-0.00732422	-0.00671387	-0.0140381
-0.00335693	-0.00793457	-0.0112915
0.000305176	-0.00946045	-0.00915527
0.00213623	-0.0109863	-0.0088501
0.00213623	-0.0125122	-0.010376
0.00274658	-0.0143433	-0.0115967
0.00396729	-0.0158691	-0.0119019
0.00549316	-0.0177002	-0.012207
0.00610352	-0.0195313	-0.0134277
0.00457764	-0.0201416	-0.015564
0.00244141	-0.0201416	-0.0177002
0.000915527	-0.0198364	-0.0189209
0.000305176	-0.0195313	-0.0192261
-0.000305176	-0.0192261	-0.0195313
-0.0012207	-0.0192261	-0.0204468
-0.00213623	-0.0186157	-0.020752
-0.00335693	-0.0180054	-0.0213623
-0.00457764	-0.0170898	-0.0216675
-0.00518799	-0.0164795	-0.0216675
-0.00549316	-0.0158691	-0.0213623
-0.00518799	-0.0158691	-0.0210571
-0.00427246	-0.015564	-0.0198364
-0.00335693	-0.0149536	-0.0183105
-0.00183105	-0.0140381	-0.0158691
-0.000305176	-0.0128174	-0.0131226
0.000305176	-0.012207	-0.0119019
0.000610352	-0.0125122	-0.0119019
0.000915527	-0.0131226	-0.012207
0.0012207	-0.0128174	-0.0115967
0.000915527	-0.0128174	-0.0119019
0	-0.0131226	-0.0131226
-0.0012207	-0.0134277	-0.0146484
-0.00152588	-0.0140381	-0.015564
-0.0012207	-0.0143433	-0.015564
-0.000610352	-0.0140381	-0.0146484
-0.000305176	-0.0128174	-0.0131226
0	-0.010376	-0.010376
0.000610352	-0.00671387	-0.00610352
0.00244141	-0.00305176	-0.000610352
0.00549316	0.000305176	0.00579834
0.00823975	0.00305176	0.0112915
0.0109863	0.00549316	0.0164795
0.0134277	0.00823975	0.0216675
0.0149536	0.0106812	0.0256348
0.0161743	0.0128174	0.0289917
0.0177002	0.0137329	0.0314331
0.0201416	0.0131226	0.0332642
0.0222778	0.0112915	0.0335693
0.0244141	0.00976563	0.0341797
0.0253296	0.0088501	0.0341797
0.0268555	0.00793457	0.03479
0.0299072	0.00640869	0.0363159
0.0341797	0.00457764	0.0387573
0.0393677	0.00335693	0.0427246
0.045166	0.00244141	0.0476074
0.0494385	0.00305176	0.0524902
0.0512695	0.00457764	0.0558472
0.0521851	0.00671387	0.0588989
0.0540161	0.00915527	0.0631714
0.0564575	0.0115967	0.0680542
0.0576782	0.0128174	0.0704956
0.0570679	0.0134277	0.0704956
0.0543213	0.0128174	0.0671387
0.0506592	0.0119019	0.062561
0.0469971	0.00976563	0.0567627
0.0439453	0.00640869	0.050354
0.0418091	0.00183105	0.0436401
0.039978	-0.00396729	0.0360107
0.0387573	-0.00976563	0.0289917
0.0369263	-0.0149536	0.0219727
0.0338745	-0.0186157	0.0152588
0.0305176	-0.0219727	0.00854492
0.0274658	-0.0256348	0.00183105
0.0244141	-0.0289917	-0.00457764
0.0204468	-0.0314331	-0.0109863
0.0161743	-0.032959	-0.0167847
0.0112915	-0.0341797	-0.0228882
0.00579834	-0.0357056	-0.0299072
0.000610352	-0.0366211	-0.0360107
-0.00488281	-0.0378418	-0.0427246
-0.0106812	-0.0387573	-0.0494385
-0.015564	-0.0396729	-0.0552368
-0.0189209	-0.039978	-0.0588989
-0.0210571	-0.039978	-0.0610352
-0.022583	-0.039978	-0.062561
-0.0228882	-0.0402832	-0.0631714
-0.0222778	-0.0405884	-0.0628662
-0.0213623	-0.0408936	-0.0622559
-0.020752	-0.0405884	-0.0613403
-0.0198364	-0.0405884	-0.0604248
-0.0186157	-0.0411987	-0.0598145
-0.017395	-0.0421143	-0.0595093
-0.0161743	-0.0427246	-0.0588989
-0.0152588	-0.0427246	-0.0579834
-0.0152588	-0.0427246	-0.0579834
-0.0164795	-0.043335	-0.0598145
-0.0180054	-0.0460815	-0.0640869
-0.0180054	-0.0518799	-0.0698853
-0.0164795	-0.0595093	-0.0759888
-0.0137329	-0.0668335	-0.0805664
-0.00946045	-0.0726318	-0.0820923
-0.00457764	-0.0762939	-0.0808716
0.000915527	-0.0772095	-0.0762939
0.00946045	-0.0750732	-0.0656128
0.0219727	-0.067749	-0.0457764
0.0393677	-0.0518799	-0.0125122
0.0610352	-0.0238037	0.0372314
0.0857544	0.0186157	0.10437
0.111389	0.0753784	0.186768
0.135803	0.144958	0.280762
0.157471	0.224304	0.381775
0.17334	0.312805	0.486145
0.181274	0.410461	0.591736
0.181274	0.514526	0.695801
0.172424	0.621338	0.793762
0.152893	0.722961	0.875854
0.121155	0.807495	0.92865
0.0799561	0.863037	0.942993
0.0326538	0.882263	0.914917
-0.0164795	0.862122	0.845642
-0.0634766	0.803528	0.740051
-0.10437	0.711365	0.606995
-0.136108	0.589905	0.453796
-0.157166	0.447083	0.289917
-0.167236	0.292358	0.125122
-0.16571	0.137329	-0.0283813
-0.155029	-0.00488281	-0.159912
-0.137329	-0.122681	-0.26001
-0.114136	-0.209961	-0.324097
-0.0881958	-0.264893	-0.353088
-0.062561	-0.289001	-0.351563
-0.0408936	-0.28656	-0.327454
-0.0241089	-0.264282	-0.288391
-0.0128174	-0.230103	-0.24292
-0.00671387	-0.19165	-0.198364
-0.00579834	-0.153809	-0.159607
-0.00732422	-0.121765	-0.129089
-0.010376	-0.0967407	-0.107117
-0.0140381	-0.0790405	-0.0930786
-0.0180054	-0.0668335	-0.0848389
-0.020752	-0.0595093	-0.0802612
-0.0216675	-0.0558472	-0.0775146
-0.0204468	-0.0546265	-0.0750732
-0.0192261	-0.0543213	-0.0735474
-0.0192261	-0.0546265	-0.0738525
-0.0192261	-0.0549316	-0.0741577
-0.0192261	-0.0552368	-0.0744629
-0.0183105	-0.0558472	-0.0741577
-0.0180054	-0.0561523	-0.0741577
-0.0180054	-0.0558472	-0.0738525
-0.0186157	-0.0549316	-0.0735474
-0.0195313	-0.0540161	-0.0735474
-0.0192261	-0.0531006	-0.0723267
-0.0177002	-0.0524902	-0.0701904
-0.015564	-0.0512695	-0.0668335
-0.0140381	-0.0494385	-0.0634766
-0.0125122	-0.0476074	-0.0601196
-0.0115967	-0.0460815	-0.0576782
-0.0115967	-0.0442505	-0.0558472
-0.0119019	-0.0430298	-0.0549316
-0.0119019	-0.0427246	-0.0546265
-0.0119019	-0.0421143	-0.0540161
-0.0115967	-0.0411987	-0.0527954
-0.010376	-0.0405884	-0.0509644
-0.00823975	-0.0402832	-0.0485229
-0.00518799	-0.0402832	-0.0454712
-0.00152588	-0.0405884	-0.0421143
0.00152588	-0.0405884	-0.0390625
0.00335693	-0.0402832	-0.0369263
0.00457764	-0.039978	-0.0354004
0.00579834	-0.0396729	-0.0338745
0.00671387	-0.039978	-0.0332642
0.00640869	-0.0396729	-0.0332642
0.00518799	-0.0393677	-0.0341797
0.00305176	-0.0387573	-0.0357056
0.000610352	-0.0384521	-0.0378418
-0.00213623	-0.038147	-0.0402832
-0.00427246	-0.0375366	-0.0418091
-0.00549316	-0.0366211	-0.0421143
-0.00488281	-0.0360107	-0.0408936
-0.00183105	-0.0363159	-0.038147
0.00183105	-0.0366211	-0.03479
0.00427246	-0.0360107	-0.0317383
0.00732422	-0.0354004	-0.0280762
0.0106812	-0.0357056	-0.0250244
0.0143433	-0.0372314	-0.0228882
0.0177002	-0.0384521	-0.020752
0.0198364	-0.0393677	-0.0195313
0.0198364	-0.0393677	-0.0195313
0.0186157	-0.0384521	-0.0198364
0.0161743	-0.0372314	-0.0210571
0.0137329	-0.0354004	-0.0216675
0.0112915	-0.0332642	-0.0219727
0.00946045	-0.0314331	-0.0219727
0.00854492	-0.0296021	-0.0210571
0.00762939	-0.0271606	-0.0195313
0.00793457	-0.0250244	-0.0170898
0.010376	-0.0234985	-0.0131226
0.0143433	-0.0228882	-0.00854492
0.0177002	-0.022583	-0.00488281
0.020752	-0.0216675	-0.000915527
0.0231934	-0.020752	0.00244141
0.0259399	-0.0201416	0.00579834
0.0296021	-0.0198364	0.00976563
0.0341797	-0.0198364	0.0143433
0.0384521	-0.0198364	0.0186157
0.0418091	-0.0195313	0.0222778
0.0448608	-0.0192261	0.0256348
0.0485229	-0.0198364	0.0286865
0.0524902	-0.0204468	0.0320435
0.0561523	-0.0210571	0.0350952
0.0588989	-0.0213623	0.0375366
0.0613403	-0.0213623	0.039978
0.0634766	-0.0213623	0.0421143
0.0646973	-0.0210571	0.0436401
0.0646973	-0.0195313	0.045166
0.0650024	-0.017395	0.0476074
0.065918	-0.0149536	0.0509644
0.067749	-0.012207	0.055542
0.0701904	-0.00915527	0.0610352
0.0732422	-0.00640869	0.0668335
0.0772095	-0.00427246	0.072937
0.0811768	-0.00244141	0.0787354
0.0842285	-0.000610352	0.0836182
0.0857544	0.00183105	0.0875854
0.0863647	0.00396729	0.090332
0.0869751	0.00549316	0.0924683
0.0872803	0.00701904	0.0942993
0.0869751	0.00823975	0.0952148
0.0866699	0.0088501	0.09552
0.0866699	0.0100708	0.0967407
0.0866699	0.0112915	0.0979614
0.0869751	0.0128174	0.0997925
0.0866699	0.0149536	0.101624
0.0860596	0.0177002	0.10376
0.0857544	0.0201416	0.105896
0.0860596	0.0213623	0.107422
0.0863647	0.0222778	0.108643
0.0857544	0.0228882	0.108643
0.0836182	0.0238037	0.107422
0.0802612	0.0244141	0.104675
0.0756836	0.0253296	0.101013
0.0704956	0.0256348	0.0961304
0.0640869	0.0259399	0.0900269
0.0588989	0.0259399	0.0848389
0.0531006	0.0259399	0.0790405
0.0454712	0.0262451	0.0717163
0.0375366	0.0262451	0.0637817
0.0299072	0.0259399	0.0558472
0.022583	0.0259399	0.0485229
0.0152588	0.0262451	0.0415039
0.00854492	0.0259399	0.0344849
0.00305176	0.0247192	0.027771
-0.0012207	0.0228882	0.0216675
-0.00427246	0.0201416	0.0158691
-0.00671387	0.017395	0.0106812
-0.00915527	0.0149536	0.00579834
-0.0115967	0.0131226	0.00152588
-0.0137329	0.012207	-0.00152588
-0.0158691	0.0115967	-0.00427246
-0.0183105	0.0109863	-0.00732422
-0.0204468	0.00976563	-0.0106812
-0.0219727	0.00823975	-0.0137329
-0.0219727	0.00701904	-0.0149536
-0.0219727	0.00579834	-0.0161743
-0.0222778	0.00549316	-0.0167847
-0.0231934	0.00518799	-0.0180054
-0.0238037	0.00457764	-0.0192261
-0.0231934	0.00335693	-0.0198364
-0.0216675	0.00244141	-0.0192261
-0.0213623	0.00244141	-0.0189209
-0.022583	0.00335693	-0.0192261
-0.0238037	0.00457764	-0.0192261
-0.0250244	0.00518799	-0.0198364
-0.0256348	0.00518799	-0.0204468
-0.0253296	0.00518799	-0.0201416
-0.0241089	0.00518799	-0.0189209
-0.022583	0.00579834	-0.0167847
-0.0222778	0.00610352	-0.0161743
-0.0219727	0.00579834	-0.0161743
-0.020752	0.00457764	-0.0161743
-0.0180054	0.00274658	-0.0152588
-0.0143433	0.00152588	-0.0128174
-0.0125122	0.00213623	-0.010376
-0.0128174	0.00366211	-0.00915527
-0.0137329	0.00488281	-0.0088501
-0.0149536	0.00549316	-0.00946045
-0.015564	0.00579834	-0.00976563
-0.0167847	0.00701904	-0.00976563
-0.0186157	0.00915527	-0.00946045
-0.0201416	0.0115967	-0.00854492
-0.0216675	0.0131226	-0.00854492
-0.0222778	0.0143433	-0.00793457
-0.0228882	0.0149536	-0.00793457
-0.022583	0.0149536	-0.00762939
-0.0216675	0.0146484	-0.00701904
-0.0201416	0.0140381	-0.00610352
-0.0180054	0.0134277	-0.00457764
-0.015564	0.0128174	-0.00274658
-0.0134277	0.012207	-0.0012207
-0.0115967	0.0115967	0
-0.0106812	0.0112915	0.000610352
-0.0100708	0.0115967	0.00152588
-0.010376	0.0125122	0.00213623
-0.0115967	0.0143433	0.00274658
-0.0128174	0.0158691	0.00305176
-0.0146484	0.0180054	0.00335693
-0.0170898	0.0204468	0.00335693
-0.0180054	0.022583	0.00457764
-0.0170898	0.0234985	0.00640869
-0.0152588	0.0238037	0.00854492
-0.0137329	0.0234985	0.00976563
-0.0119019	0.022583	0.0106812
-0.00976563	0.0219727	0.012207
-0.00823975	0.0213623	0.0131226
-0.00701904	0.0201416	0.0131226
-0.00640869	0.0189209	0.0125122
-0.00732422	0.0183105	0.0109863
-0.00976563	0.0189209	0.00915527
-0.0125122	0.0192261	0.00671387
-0.0143433	0.0189209	0.00457764
-0.015564	0.0186157	0.00305176
-0.0164795	0.0189209	0.00244141
-0.0158691	0.0183105	0.00244141
-0.0134277	0.0167847	0.00335693
-0.0106812	0.0149536	0.00427246
-0.0088501	0.0137329	0.00488281
-0.00793457	0.0131226	0.00518799
-0.00732422	0.0128174	0.00549316
-0.00732422	0.0131226	0.00579834
-0.00793457	0.0143433	0.00640869
-0.0100708	0.0158691	0.00579834
-0.0134277	0.0177002	0.00427246
-0.0161743	0.0192261	0.00305176
-0.0177002	0.020752	0.00305176
-0.0186157	0.0219727	0.00335693
-0.0192261	0.0231934	0.00396729
-0.0195313	0.0241089	0.00457764
-0.0195313	0.0238037	0.00427246
-0.0180054	0.0222778	0.00427246
-0.0158691	0.020752	0.00488281
-0.0134277	0.0201416	0.00671387
-0.0119019	0.0198364	0.00793457
-0.0115967	0.0198364	0.00823975
-0.0125122	0.0198364	0.00732422
-0.0128174	0.0192261	0.00640869
-0.0128174	0.0192261	0.00640869
-0.0119019	0.0198364	0.00793457
-0.0109863	0.020752	0.00976563
-0.0106812	0.0219727	0.0112915
-0.0106812	0.0238037	0.0131226
-0.0109863	0.0265503	0.015564
-0.0119019	0.0299072	0.0180054
-0.0128174	0.0338745	0.0210571
-0.0125122	0.0375366	0.0250244
-0.0119019	0.0408936	0.0289917
-0.0128174	0.0445557	0.0317383
-0.0134277	0.0479126	0.0344849
-0.0134277	0.0506592	0.0372314
-0.0134277	0.0515747	0.038147
-0.0115967	0.050354	0.0387573
-0.00915527	0.0482178	0.0390625
-0.00671387	0.0469971	0.0402832
-0.00488281	0.0463867	0.0415039
-0.00244141	0.0448608	0.0424194
0.000915527	0.0430298	0.0439453
0.00488281	0.0411987	0.0460815
0.00793457	0.0408936	0.0488281
0.0109863	0.0418091	0.0527954
0.0137329	0.0436401	0.057373
0.0161743	0.045166	0.0613403
0.0189209	0.0469971	0.065918
0.0210571	0.0485229	0.0695801
0.022583	0.0500488	0.0726318
0.0234985	0.0500488	0.0735474
0.0238037	0.0491333	0.072937
0.0234985	0.0476074	0.071106
0.022583	0.0448608	0.0674438
0.0213623	0.0411987	0.062561
0.0189209	0.0369263	0.0558472
0.0161743	0.0317383	0.0479126
0.0131226	0.0256348	0.0387573
0.0100708	0.0189209	0.0289917
0.00701904	0.012207	0.0192261
0.00366211	0.00610352	0.00976563
-0.000915527	0.0012207	0.000305176
-0.00640869	-0.00244141	-0.0088501
-0.0128174	-0.00488281	-0.0177002
-0.0192261	-0.00701904	-0.0262451
-0.0256348	-0.00823975	-0.0338745
-0.0320435	-0.00854492	-0.0405884
-0.038147	-0.00823975	-0.0463867
-0.0442505	-0.00762939	-0.0518799
-0.0494385	-0.00732422	-0.0567627
-0.0534058	-0.00701904	-0.0604248
-0.0561523	-0.00732422	-0.0634766
-0.0576782	-0.00762939	-0.0653076
-0.0579834	-0.00854492	-0.0665283
-0.0576782	-0.00915527	-0.0668335
-0.0582886	-0.010376	-0.0686646
-0.0588989	-0.0115967	-0.0704956
-0.0595093	-0.012207	-0.0717163
-0.0604248	-0.0119019	-0.0723267
-0.0619507	-0.0106812	-0.0726318
-0.062561	-0.0100708	-0.0726318
-0.062561	-0.0100708	-0.0726318
-0.0619507	-0.0100708	-0.0720215
-0.0616455	-0.0106812	-0.0723267
-0.0616455	-0.0125122	-0.0741577
-0.0610352	-0.0170898	-0.078125
-0.0588989	-0.0247192	-0.0836182
-0.0558472	-0.0341797	-0.0900269
-0.0537109	-0.0430298	-0.0967407
-0.0509644	-0.050354	-0.101318
-0.0466919	-0.0564575	-0.103149
-0.039978	-0.06073	-0.100708
-0.0299072	-0.0616455	-0.0915527
-0.0152588	-0.057373	-0.0726318
0.00488281	-0.0442505	-0.0393677
0.0283813	-0.0177002	0.0106812
0.0537109	0.0253296	0.0790405
0.0793457	0.0845337	0.163879
0.104675	0.15625	0.260925
0.1297	0.237427	0.367126
0.150757	0.327759	0.478516
0.162354	0.429077	0.591431
0.160522	0.540466	0.700989
0.14679	0.655518	0.802307
0.123291	0.761108	0.884399
0.090332	0.844116	0.934448
0.0497437	0.894775	0.944519
0.00366211	0.907898	0.91156
-0.0466919	0.882263	0.835571
-0.0976563	0.817261	0.719604
-0.143127	0.715332	0.572205
-0.179443	0.582275	0.402832
-0.203857	0.429077	0.22522
-0.214844	0.266724	0.0518799
-0.213318	0.108032	-0.105286
-0.202637	-0.0338745	-0.236511
-0.185852	-0.14801	-0.333862
-0.164795	-0.228882	-0.393677
-0.140991	-0.274353	-0.415344
-0.116882	-0.286865	-0.403748
-0.0958252	-0.271606	-0.367432
-0.0790405	-0.236816	-0.315857
-0.0671387	-0.19165	-0.258789
-0.0613403	-0.144348	-0.205688
-0.0604248	-0.100708	-0.161133
-0.0631714	-0.0653076	-0.128479
-0.0671387	-0.0390625	-0.106201
-0.071106	-0.0222778	-0.0933838
-0.072937	-0.0140381	-0.0869751
-0.0732422	-0.0119019	-0.085144
-0.0726318	-0.0134277	-0.0860596
-0.0714111	-0.0167847	-0.0881958
-0.0698853	-0.0204468	-0.090332
-0.067749	-0.0241089	-0.0918579
-0.065918	-0.0268555	-0.0927734
-0.0650024	-0.0286865	-0.093689
-0.0656128	-0.0296021	-0.0952148
-0.0662231	-0.0292969	-0.09552
-0.0662231	-0.0283813	-0.0946045
-0.0653076	-0.027771	-0.0930786
-0.0640869	-0.0271606	-0.0912476
-0.0634766	-0.0259399	-0.0894165
-0.062561	-0.0244141	-0.0869751
-0.0613403	-0.0231934	-0.0845337
-0.0592041	-0.0219727	-0.0811768
-0.0561523	-0.0216675	-0.0778198
-0.0527954	-0.0216675	-0.0744629
-0.0494385	-0.0216675	-0.071106
-0.0469971	-0.0219727	-0.0689697
-0.045166	-0.0219727	-0.0671387
-0.0439453	-0.022583	-0.0665283
-0.0436401	-0.0228882	-0.0665283
-0.0442505	-0.0228882	-0.0671387
-0.0448608	-0.022583	-0.0674438
-0.045166	-0.022583	-0.067749
-0.0448608	-0.0219727	-0.0668335
-0.0457764	-0.0216675	-0.0674438
-0.0469971	-0.020752	-0.067749
-0.0482178	-0.0198364	-0.0680542
-0.0482178	-0.0189209	-0.0671387
-0.0476074	-0.0180054	-0.0656128
-0.0473022	-0.0164795	-0.0637817
-0.0476074	-0.015564	-0.0631714
-0.0479126	-0.0149536	-0.0628662
-0.0482178	-0.0143433	-0.062561
-0.0479126	-0.0137329	-0.0616455
-0.0460815	-0.0131226	-0.0592041
-0.0442505	-0.0125122	-0.0567627
-0.0427246	-0.012207	-0.0549316
-0.0415039	-0.0119019	-0.0534058
-0.0402832	-0.0115967	-0.0518799
-0.0378418	-0.0115967	-0.0494385
-0.0344849	-0.0119019	-0.0463867
-0.0314331	-0.012207	-0.0436401
-0.0296021	-0.0119019	-0.0415039
-0.0299072	-0.0106812	-0.0405884
-0.0299072	-0.00976563	-0.0396729
-0.0292969	-0.0088501	-0.038147
-0.0283813	-0.00793457	-0.0363159
-0.0274658	-0.00732422	-0.03479
-0.0268555	-0.00640869	-0.0332642
-0.0268555	-0.00488281	-0.0317383
-0.0265503	-0.00305176	-0.0296021
-0.0250244	-0.00213623	-0.0271606
-0.0219727	-0.00152588	-0.0234985
-0.0183105	-0.000915527	-0.0192261
-0.0146484	-0.000305176	-0.0149536
-0.0109863	-0.000305176	-0.0112915
-0.00823975	-0.000305176	-0.00854492
-0.00640869	0.000915527	-0.00549316
-0.00579834	0.00274658	-0.00305176
-0.00427246	0.00396729	-0.000305176
-0.0012207	0.00488281	0.00366211
0.00244141	0.00549316	0.00793457
0.00488281	0.00579834	0.0106812
0.00640869	0.00640869	0.0128174
0.00732422	0.00793457	0.0152588
0.00854492	0.0100708	0.0186157
0.010376	0.0119019	0.0222778
0.0131226	0.0134277	0.0265503
0.0161743	0.0146484	0.0308228
0.0189209	0.0158691	0.03479
0.0213623	0.0177002	0.0390625
0.0238037	0.0195313	0.043335
0.0262451	0.0213623	0.0476074
0.0292969	0.0231934	0.0524902
0.0323486	0.0247192	0.0570679
0.03479	0.0262451	0.0610352
0.0375366	0.027771	0.0653076
0.0402832	0.0289917	0.0692749
0.0430298	0.0299072	0.072937
0.0454712	0.0308228	0.0762939
0.0469971	0.0323486	0.0793457
0.0482178	0.0338745	0.0820923
0.0488281	0.0360107	0.0848389
0.0497437	0.038147	0.0878906
0.0509644	0.039978	0.0909424
0.0518799	0.0415039	0.0933838
0.0531006	0.0430298	0.0961304
0.0540161	0.0442505	0.0982666
0.0549316	0.0448608	0.0997925
0.0552368	0.0460815	0.101318
0.0558472	0.0460815	0.101929
0.0567627	0.0448608	0.101624
0.0567627	0.0442505	0.101013
0.055542	0.0439453	0.0994873
0.0549316	0.0424194	0.0973511
0.0549316	0.0402832	0.0952148
0.0549316	0.0378418	0.0927734
0.0534058	0.0350952	0.088501
0.0509644	0.0320435	0.0830078
0.0476074	0.0299072	0.0775146
0.0436401	0.0280762	0.0717163
0.0393677	0.0262451	0.0656128
0.0360107	0.0238037	0.0598145
0.032959	0.0204468	0.0534058
0.0283813	0.0186157	0.0469971
0.0219727	0.0180054	0.039978
0.0152588	0.0180054	0.0332642
0.00946045	0.0177002	0.0271606
0.00457764	0.0167847	0.0213623
0.000610352	0.0143433	0.0149536
-0.00274658	0.0112915	0.00854492
-0.00732422	0.00976563	0.00244141
-0.012207	0.00976563	-0.00244141
-0.0158691	0.00854492	-0.00732422
-0.0183105	0.00732422	-0.0109863
-0.0210571	0.00640869	-0.0146484
-0.0238037	0.00579834	-0.0180054
-0.0268555	0.00518799	-0.0216675
-0.0299072	0.00488281	-0.0250244
-0.0320435	0.00457764	-0.0274658
-0.0326538	0.00335693	-0.0292969
-0.0323486	0.000915527	-0.0314331
-0.0311279	-0.00244141	-0.0335693
-0.0308228	-0.00549316	-0.0363159
-0.0314331	-0.00762939	-0.0390625
-0.0311279	-0.0106812	-0.0418091
-0.0292969	-0.0152588	-0.0445557
-0.0283813	-0.0189209	-0.0473022
-0.0299072	-0.0192261	-0.0491333
-0.0326538	-0.0170898	-0.0497437
-0.0354004	-0.015564	-0.0509644
-0.0375366	-0.0140381	-0.0515747
-0.0396729	-0.012207	-0.0518799
-0.0427246	-0.00976563	-0.0524902
-0.0466919	-0.00610352	-0.0527954
-0.0515747	-0.00183105	-0.0534058
-0.055542	0.0012207	-0.0543213
-0.0582886	0.00305176	-0.0552368
-0.0582886	0.00305176	-0.0552368
-0.057373	0.00274658	-0.0546265
-0.0567627	0.00274658	-0.0540161
-0.0570679	0.00305176	-0.0540161
-0.0576782	0.00305176	-0.0546265
-0.0579834	0.00305176	-0.0549316
-0.0561523	0.00213623	-0.0540161
-0.0534058	0.000610352	-0.0527954
-0.0509644	-0.000915527	-0.0518799
-0.0497437	-0.00152588	-0.0512695
-0.0494385	-0.0012207	-0.0506592
-0.050354	-0.000305176	-0.0506592
-0.0518799	0.0012207	-0.0506592
-0.0527954	0.00183105	-0.0509644
-0.0518799	0.00183105	-0.0500488
-0.0500488	0.000610352	-0.0494385
-0.0485229	0.000305176	-0.0482178
-0.0482178	0.00244141	-0.0457764
-0.0479126	0.00457764	-0.043335
-0.0476074	0.00671387	-0.0408936
-0.0469971	0.00854492	-0.0384521
-0.0469971	0.0106812	-0.0363159
-0.0473022	0.0125122	-0.03479
-0.0479126	0.0146484	-0.0332642
-0.0491333	0.017395	-0.0317383
-0.0512695	0.0198364	-0.0314331
-0.0531006	0.0210571	-0.0320435
-0.0537109	0.020752	-0.032959
-0.0540161	0.0198364	-0.0341797
-0.0546265	0.0189209	-0.0357056
-0.055542	0.0183105	-0.0372314
-0.0570679	0.0177002	-0.0393677
-0.0576782	0.0164795	-0.0411987
-0.0576782	0.0152588	-0.0424194
-0.0570679	0.0149536	-0.0421143
-0.057373	0.015564	-0.0418091
-0.0576782	0.0164795	-0.0411987
-0.0576782	0.017395	-0.0402832
-0.0567627	0.0177002	-0.0390625
-0.0552368	0.0186157	-0.0366211
-0.0534058	0.0192261	-0.0341797
-0.0515747	0.0192261	-0.0323486
-0.0491333	0.0183105	-0.0308228
-0.0473022	0.017395	-0.0299072
-0.0466919	0.0167847	-0.0299072
-0.0463867	0.0161743	-0.0302124
-0.0463867	0.0152588	-0.0311279
-0.0469971	0.0146484	-0.0323486
-0.0482178	0.0140381	-0.0341797
-0.0494385	0.0128174	-0.0366211
-0.050354	0.0119019	-0.0384521
-0.0515747	0.012207	-0.0393677
-0.0521851	0.0131226	-0.0390625
-0.0509644	0.0128174	-0.038147
-0.0494385	0.0115967	-0.0378418
-0.0479126	0.0100708	-0.0378418
-0.0466919	0.00854492	-0.038147
-0.045166	0.00762939	-0.0375366
-0.043335	0.00640869	-0.0369263
-0.0415039	0.00457764	-0.0369263
-0.0396729	0.00274658	-0.0369263
-0.0387573	0.00152588	-0.0372314
-0.0396729	0.000915527	-0.0387573
-0.0418091	0.000610352	-0.0411987
-0.0445557	0.000610352	-0.0439453
-0.0479126	0.0012207	-0.0466919
-0.0500488	0.00244141	-0.0476074
-0.0506592	0.00396729	-0.0466919
-0.0509644	0.00640869	-0.0445557
-0.0515747	0.00915527	-0.0424194
-0.050354	0.0109863	-0.0393677
-0.0488281	0.0134277	-0.0354004
-0.0482178	0.0180054	-0.0302124
-0.0479126	0.0228882	-0.0250244
-0.0473022	0.0274658	-0.0198364
-0.0463867	0.0311279	-0.0152588
-0.0454712	0.0344849	-0.0109863
-0.0445557	0.0369263	-0.00762939
-0.0442505	0.0393677	-0.00488281
-0.045166	0.0424194	-0.00274658
-0.0460815	0.045166	-0.000915527
-0.0454712	0.0476074	0.00213623
-0.0430298	0.0491333	0.00610352
-0.0390625	0.0500488	0.0109863
-0.03479	0.050354	0.015564
-0.0314331	0.0506592	0.0192261
-0.0280762	0.0506592	0.022583
-0.0241089	0.050354	0.0262451
-0.0204468	0.0494385	0.0289917
-0.0167847	0.0476074	0.0308228
-0.0125122	0.0448608	0.0323486
-0.00854492	0.0418091	0.0332642
-0.00488281	0.0393677	0.0344849
-0.0012207	0.0378418	0.0366211
0.00244141	0.0369263	0.0393677
0.00549316	0.0366211	0.0421143
0.00793457	0.0375366	0.0454712
0.00854492	0.0390625	0.0476074
0.0088501	0.0411987	0.0500488
0.00854492	0.0427246	0.0512695
0.00854492	0.0427246	0.0512695
0.00793457	0.0411987	0.0491333
0.00610352	0.0390625	0.045166
0.00335693	0.0360107	0.0393677
0.000610352	0.0314331	0.0320435
-0.0012207	0.0256348	0.0244141
-0.00244141	0.0186157	0.0161743
-0.00457764	0.012207	0.00762939
-0.00793457	0.00640869	-0.00152588
-0.012207	0.0012207	-0.0109863
-0.0167847	-0.00335693	-0.0201416
-0.0216675	-0.00732422	-0.0289917
-0.0268555	-0.010376	-0.0372314
-0.0326538	-0.0131226	-0.0457764
-0.0384521	-0.0149536	-0.0534058
-0.0436401	-0.0170898	-0.06073
-0.0482178	-0.0186157	-0.0668335
-0.0521851	-0.0192261	-0.0714111
-0.0546265	-0.0198364	-0.0744629
-0.055542	-0.0213623	-0.0769043
-0.0561523	-0.0228882	-0.0790405
-0.0579834	-0.0222778	-0.0802612
-0.0601196	-0.0210571	-0.0811768
-0.0616455	-0.0201416	-0.0817871
-0.062561	-0.0198364	-0.0823975
-0.062561	-0.0201416	-0.0827026
-0.0616455	-0.020752	-0.0823975
-0.0595093	-0.0222778	-0.0817871
-0.0567627	-0.0241089	-0.0808716
-0.0543213	-0.0262451	-0.0805664
-0.0518799	-0.0280762	-0.0799561
-0.0482178	-0.0296021	-0.0778198
-0.0442505	-0.0314331	-0.0756836
-0.0411987	-0.0341797	-0.0753784
-0.0402832	-0.0378418	-0.078125
-0.0408936	-0.0439453	-0.0848389
-0.0421143	-0.0515747	-0.093689
-0.0436401	-0.0598145	-0.103455
-0.0448608	-0.0674438	-0.112305
-0.0442505	-0.0744629	-0.118713
-0.0405884	-0.0808716	-0.12146
-0.032959	-0.0857544	-0.118713
-0.0192261	-0.0878906	-0.107117
0.000305176	-0.0830078	-0.0827026
0.0247192	-0.0656128	-0.0408936
0.0512695	-0.0311279	0.0201416
0.0784302	0.020752	0.0991821
0.106201	0.0888062	0.195007
0.133057	0.170288	0.303345
0.155945	0.263672	0.419617
0.169678	0.369873	0.539551
0.172424	0.487366	0.65979
0.163879	0.610352	0.774231
0.144348	0.727844	0.872192
0.113831	0.827026	0.940857
0.0732422	0.896301	0.969543
0.0265503	0.927734	0.954285
-0.0231934	0.915833	0.892639
-0.0735474	0.85968	0.786133
-0.121765	0.762024	0.640259
-0.162964	0.628967	0.466003
-0.192261	0.470581	0.27832
-0.20813	0.299683	0.0915527
-0.210571	0.130005	-0.0805664
-0.202026	-0.0253296	-0.227356
-0.184631	-0.155029	-0.339661
-0.161133	-0.250854	-0.411987
-0.135193	-0.307617	-0.44281
-0.108643	-0.327148	-0.435791
-0.0845337	-0.314331	-0.398865
-0.0650024	-0.27771	-0.342712
-0.0521851	-0.227051	-0.279236
-0.0460815	-0.172729	-0.218811
-0.0454712	-0.122986	-0.168457
-0.0482178	-0.0830078	-0.131226
-0.0537109	-0.0543213	-0.108032
-0.0598145	-0.0366211	-0.0964355
-0.0646973	-0.0289917	-0.093689
-0.067749	-0.0289917	-0.0967407
-0.0692749	-0.0338745	-0.103149
-0.0689697	-0.0405884	-0.109558
-0.0674438	-0.0469971	-0.114441
-0.0656128	-0.0518799	-0.117493
-0.0643921	-0.0543213	-0.118713
-0.0634766	-0.0546265	-0.118103
-0.0628662	-0.0540161	-0.116882
-0.0616455	-0.0534058	-0.115051
-0.0610352	-0.0521851	-0.11322
-0.06073	-0.050354	-0.111084
-0.0610352	-0.0488281	-0.109863
-0.0610352	-0.0469971	-0.108032
-0.0610352	-0.0454712	-0.106506
-0.0604248	-0.0445557	-0.10498
-0.0598145	-0.0448608	-0.104675
-0.0588989	-0.0454712	-0.10437
-0.0579834	-0.0463867	-0.10437
-0.0576782	-0.0463867	-0.104065
-0.0576782	-0.0454712	-0.103149
-0.057373	-0.0445557	-0.101929
-0.0567627	-0.0442505	-0.101013
-0.0549316	-0.0445557	-0.0994873
-0.0527954	-0.0448608	-0.0976563
-0.0518799	-0.0442505	-0.0961304
-0.0518799	-0.0427246	-0.0946045
-0.0506592	-0.0415039	-0.0921631
-0.0485229	-0.0408936	-0.0894165
-0.0473022	-0.039978	-0.0872803
-0.0473022	-0.0384521	-0.0857544
-0.0476074	-0.0369263	-0.0845337
-0.0482178	-0.0363159	-0.0845337
-0.0479126	-0.0360107	-0.0839233
-0.0473022	-0.0357056	-0.0830078
-0.0469971	-0.03479	-0.0817871
-0.0466919	-0.0335693	-0.0802612
-0.0469971	-0.0326538	-0.0796509
-0.0469971	-0.0317383	-0.0787354
-0.0460815	-0.0311279	-0.0772095
-0.0448608	-0.0302124	-0.0750732
-0.043335	-0.0296021	-0.072937
-0.0424194	-0.0283813	-0.0708008
-0.0415039	-0.0274658	-0.0689697
-0.0408936	-0.0268555	-0.067749
-0.0411987	-0.0262451	-0.0674438
-0.0421143	-0.0259399	-0.0680542
-0.0427246	-0.0259399	-0.0686646
-0.043335	-0.0256348	-0.0689697
-0.0439453	-0.0250244	-0.0689697
-0.0448608	-0.0241089	-0.0689697
-0.0457764	-0.0234985	-0.0692749
-0.0460815	-0.0228882	-0.0689697
-0.0454712	-0.0222778	-0.067749
-0.0439453	-0.0219727	-0.065918
-0.0415039	-0.0216675	-0.0631714
-0.0375366	-0.0219727	-0.0595093
-0.0320435	-0.0238037	-0.0558472
-0.0268555	-0.0253296	-0.0521851
-0.0222778	-0.0259399	-0.0482178
-0.017395	-0.0268555	-0.0442505
-0.0131226	-0.0274658	-0.0405884
-0.00946045	-0.0271606	-0.0366211
-0.00671387	-0.0259399	-0.0326538
-0.00488281	-0.0241089	-0.0289917
-0.00396729	-0.0216675	-0.0256348
-0.00366211	-0.0186157	-0.0222778
-0.00396729	-0.0146484	-0.0186157
-0.00488281	-0.010376	-0.0152588
-0.00518799	-0.00671387	-0.0119019
-0.00518799	-0.00335693	-0.00854492
-0.00457764	-0.000305176	-0.00488281
-0.00335693	0.00213623	-0.0012207
-0.00152588	0.00427246	0.00274658
0.00152588	0.00549316	0.00701904
0.00549316	0.00640869	0.0119019
0.00946045	0.00732422	0.0167847
0.0137329	0.00823975	0.0219727
0.0186157	0.0088501	0.0274658
0.0228882	0.010376	0.0332642
0.0268555	0.0119019	0.0387573
0.0302124	0.0140381	0.0442505
0.0332642	0.0164795	0.0497437
0.0354004	0.0195313	0.0549316
0.0375366	0.0219727	0.0595093
0.039978	0.0241089	0.0640869
0.0421143	0.0256348	0.067749
0.043335	0.027771	0.071106
0.043335	0.0308228	0.0741577
0.043335	0.0338745	0.0772095
0.0448608	0.03479	0.0796509
0.0476074	0.0341797	0.0817871
0.0512695	0.0323486	0.0836182
0.0546265	0.0311279	0.0857544
0.0567627	0.0299072	0.0866699
0.0588989	0.0292969	0.0881958
0.0604248	0.0283813	0.0888062
0.0616455	0.0271606	0.0888062
0.0610352	0.0268555	0.0878906
0.0595093	0.0274658	0.0869751
0.057373	0.027771	0.085144
0.0543213	0.027771	0.0820923
0.050354	0.0274658	0.0778198
0.045166	0.0274658	0.0726318
0.0384521	0.0280762	0.0665283
0.0305176	0.0286865	0.0592041
0.0228882	0.0286865	0.0515747
0.0170898	0.0268555	0.0439453
0.012207	0.0234985	0.0357056
0.00732422	0.0198364	0.0271606
0.00213623	0.0170898	0.0192261
-0.00366211	0.0158691	0.012207
-0.00854492	0.0137329	0.00518799
-0.0125122	0.010376	-0.00213623
-0.0158691	0.00671387	-0.00915527
-0.0195313	0.00366211	-0.0158691
-0.0238037	0.00183105	-0.0219727
-0.027771	0.000610352	-0.0271606
-0.0308228	-0.0012207	-0.0320435
-0.0323486	-0.00366211	-0.0360107
-0.0332642	-0.00640869	-0.0396729
-0.0344849	-0.00854492	-0.0430298
-0.0360107	-0.0106812	-0.0466919
-0.0375366	-0.012207	-0.0497437
-0.038147	-0.0143433	-0.0524902
-0.0387573	-0.0164795	-0.0552368
-0.0402832	-0.0186157	-0.0588989
-0.0418091	-0.0198364	-0.0616455
-0.043335	-0.0213623	-0.0646973
-0.0448608	-0.0222778	-0.0671387
-0.0463867	-0.0228882	-0.0692749
-0.0482178	-0.022583	-0.0708008
-0.0497437	-0.0219727	-0.0717163
-0.050354	-0.0216675	-0.0720215
-0.0494385	-0.0213623	-0.0708008
-0.0476074	-0.0213623	-0.0689697
-0.045166	-0.0213623	-0.0665283
-0.0430298	-0.0213623	-0.0643921
-0.0421143	-0.0213623	-0.0634766
-0.0424194	-0.0210571	-0.0634766
-0.0421143	-0.0213623	-0.0634766
-0.0415039	-0.0219727	-0.0634766
-0.0418091	-0.022583	-0.0643921
-0.043335	-0.0219727	-0.0653076
-0.0448608	-0.0210571	-0.065918
-0.0460815	-0.0204468	-0.0665283
-0.0463867	-0.0204468	-0.0668335
-0.045166	-0.0216675	-0.0668335
-0.0427246	-0.0234985	-0.0662231
-0.039978	-0.0250244	-0.0650024
-0.0378418	-0.0253296	-0.0631714
-0.0369263	-0.0244141	-0.0613403
-0.0372314	-0.0228882	-0.0601196
-0.0375366	-0.0216675	-0.0592041
-0.0372314	-0.0204468	-0.0576782
-0.0375366	-0.0195313	-0.0570679
-0.0387573	-0.0186157	-0.057373
-0.0408936	-0.0167847	-0.0576782
-0.0436401	-0.0143433	-0.0579834
-0.0457764	-0.012207	-0.0579834
-0.0457764	-0.0109863	-0.0567627
-0.045166	-0.0106812	-0.0558472
-0.0445557	-0.0109863	-0.055542
-0.0427246	-0.0119019	-0.0546265
-0.0408936	-0.0119019	-0.0527954
-0.0408936	-0.0100708	-0.0509644
-0.039978	-0.0088501	-0.0488281
-0.0384521	-0.00915527	-0.0476074
-0.0363159	-0.00976563	-0.0460815
-0.0344849	-0.010376	-0.0448608
-0.0332642	-0.010376	-0.0436401
-0.032959	-0.00976563	-0.0427246
-0.0326538	-0.00976563	-0.0424194
-0.0323486	-0.010376	-0.0427246
-0.0323486	-0.0106812	-0.0430298
-0.0326538	-0.010376	-0.0430298
-0.0335693	-0.00915527	-0.0427246
-0.0335693	-0.00823975	-0.0418091
-0.0332642	-0.00732422	-0.0405884
-0.0338745	-0.00579834	-0.0396729
-0.03479	-0.00457764	-0.0393677
-0.03479	-0.00396729	-0.0387573
-0.0332642	-0.00396729	-0.0372314
-0.0311279	-0.00427246	-0.0354004
-0.0283813	-0.00518799	-0.0335693
-0.0262451	-0.00579834	-0.0320435
-0.0244141	-0.00610352	-0.0305176
-0.0231934	-0.00640869	-0.0296021
-0.0219727	-0.00640869	-0.0283813
-0.0213623	-0.00701904	-0.0283813
-0.020752	-0.00793457	-0.0286865
-0.0216675	-0.00762939	-0.0292969
-0.0228882	-0.00671387	-0.0296021
-0.0234985	-0.00671387	-0.0302124
-0.0238037	-0.00732422	-0.0311279
-0.0250244	-0.00762939	-0.0326538
-0.0268555	-0.00793457	-0.03479
-0.0280762	-0.00854492	-0.0366211
-0.0289917	-0.0088501	-0.0378418
-0.0302124	-0.0088501	-0.0390625
-0.0320435	-0.00793457	-0.039978
-0.0335693	-0.00762939	-0.0411987
-0.03479	-0.00701904	-0.0418091
-0.0354004	-0.00701904	-0.0424194
-0.03479	-0.00701904	-0.0418091
-0.0341797	-0.00732422	-0.0415039
-0.0332642	-0.00701904	-0.0402832
-0.0326538	-0.00671387	-0.0393677
-0.0326538	-0.00701904	-0.0396729
-0.0326538	-0.00671387	-0.0393677
-0.0326538	-0.00701904	-0.0396729
-0.0323486	-0.00823975	-0.0405884
-0.0311279	-0.0106812	-0.0418091
-0.0302124	-0.0134277	-0.0436401
-0.0292969	-0.0164795	-0.0457764
-0.0286865	-0.0195313	-0.0482178
-0.0286865	-0.0216675	-0.050354
-0.0280762	-0.0238037	-0.0518799
-0.0271606	-0.0259399	-0.0531006
-0.0253296	-0.0280762	-0.0534058
-0.0244141	-0.0283813	-0.0527954
-0.0247192	-0.0268555	-0.0515747
-0.0253296	-0.0244141	-0.0497437
-0.0268555	-0.020752	-0.0476074
-0.0286865	-0.0158691	-0.0445557
-0.0305176	-0.0109863	-0.0415039
-0.0311279	-0.00640869	-0.0375366
-0.0317383	-0.00152588	-0.0332642
-0.0320435	0.00366211	-0.0283813
-0.0314331	0.00854492	-0.0228882
-0.0292969	0.0125122	-0.0167847
-0.027771	0.0152588	-0.0125122
-0.0265503	0.0167847	-0.00976563
-0.0259399	0.0186157	-0.00732422
-0.0253296	0.0216675	-0.00366211
-0.0253296	0.0259399	0.000610352
-0.0262451	0.0299072	0.00366211
-0.0274658	0.0332642	0.00579834
-0.0286865	0.0360107	0.00732422
-0.0289917	0.038147	0.00915527
-0.027771	0.0393677	0.0115967
-0.0247192	0.0396729	0.0149536
-0.020752	0.0384521	0.0177002
-0.0167847	0.0366211	0.0198364
-0.0128174	0.0338745	0.0210571
-0.00823975	0.0299072	0.0216675
-0.00183105	0.0247192	0.0228882
0.00579834	0.0195313	0.0253296
0.012207	0.0158691	0.0280762
0.0167847	0.0137329	0.0305176
0.0198364	0.0131226	0.032959
0.022583	0.0131226	0.0357056
0.0253296	0.0137329	0.0390625
0.0274658	0.0149536	0.0424194
0.0289917	0.0164795	0.0454712
0.0296021	0.0177002	0.0473022
0.0292969	0.0183105	0.0476074
0.0286865	0.0177002	0.0463867
0.0268555	0.0152588	0.0421143
0.0231934	0.012207	0.0354004
0.0192261	0.00793457	0.0271606
0.015564	0.00274658	0.0183105
0.0119019	-0.00274658	0.00915527
0.00701904	-0.00793457	-0.000915527
0.00152588	-0.0125122	-0.0109863
-0.00335693	-0.0167847	-0.0201416
-0.00854492	-0.0201416	-0.0286865
-0.0140381	-0.0222778	-0.0363159
-0.0201416	-0.0231934	-0.043335
-0.0265503	-0.0228882	-0.0494385
-0.0332642	-0.0219727	-0.0552368
-0.0393677	-0.0213623	-0.06073
-0.0448608	-0.0210571	-0.065918
-0.0491333	-0.0210571	-0.0701904
-0.0524902	-0.0213623	-0.0738525
-0.0552368	-0.0216675	-0.0769043
-0.0570679	-0.0219727	-0.0790405
-0.0576782	-0.0231934	-0.0808716
-0.057373	-0.0244141	-0.0817871
-0.0567627	-0.0256348	-0.0823975
-0.0558472	-0.0259399	-0.0817871
-0.0543213	-0.0259399	-0.0802612
-0.0524902	-0.0259399	-0.0784302
-0.0512695	-0.0259399	-0.0772095
-0.0509644	-0.0256348	-0.0765991
-0.0512695	-0.0253296	-0.0765991
-0.0512695	-0.0250244	-0.0762939
-0.0512695	-0.0253296	-0.0765991
-0.0509644	-0.0268555	-0.0778198
-0.0509644	-0.0302124	-0.0811768
-0.0509644	-0.0357056	-0.0866699
-0.0509644	-0.043335	-0.0942993
-0.0509644	-0.0512695	-0.102234
-0.0491333	-0.0585938	-0.107727
-0.0448608	-0.065918	-0.110779
-0.0372314	-0.072937	-0.110168
-0.0262451	-0.0793457	-0.105591
-0.00915527	-0.0836182	-0.0927734
0.0131226	-0.0817871	-0.0686646
0.039978	-0.0683594	-0.0283813
0.0689697	-0.0390625	0.0299072
0.098877	0.00701904	0.105896
0.128784	0.0674438	0.196228
0.157471	0.140076	0.297546
0.182495	0.224915	0.40741
0.19928	0.323486	0.522766
0.205078	0.435181	0.640259
0.198669	0.555115	0.753784
0.180054	0.672302	0.852356
0.149841	0.7724	0.922241
0.108948	0.843506	0.952454
0.0598145	0.878601	0.938416
0.00518799	0.872803	0.877991
-0.0521851	0.825195	0.77301
-0.106812	0.737305	0.630493
-0.153503	0.613708	0.460205
-0.187378	0.463562	0.276184
-0.208435	0.300293	0.0918579
-0.21637	0.137329	-0.0790405
-0.212402	-0.0128174	-0.22522
-0.197144	-0.139771	-0.336914
-0.173645	-0.235291	-0.408936
-0.146484	-0.293579	-0.440063
-0.118103	-0.315552	-0.433655
-0.0921631	-0.305786	-0.397949
-0.0714111	-0.272217	-0.343628
-0.0576782	-0.224915	-0.282593
-0.0500488	-0.173035	-0.223083
-0.0476074	-0.124817	-0.172424
-0.0497437	-0.0842285	-0.133972
-0.0537109	-0.0540161	-0.107727
-0.0576782	-0.0350952	-0.0927734
-0.0616455	-0.0253296	-0.0869751
-0.0640869	-0.0228882	-0.0869751
-0.0646973	-0.0250244	-0.0897217
-0.0637817	-0.0299072	-0.093689
-0.0622559	-0.0354004	-0.0976563
-0.06073	-0.039978	-0.100708
-0.0598145	-0.0430298	-0.102844
-0.0592041	-0.0445557	-0.10376
-0.0585938	-0.0448608	-0.103455
-0.0579834	-0.0439453	-0.101929
-0.057373	-0.0421143	-0.0994873
-0.057373	-0.0396729	-0.0970459
-0.0570679	-0.0369263	-0.0939941
-0.0561523	-0.03479	-0.0909424
-0.0552368	-0.032959	-0.0881958
-0.0537109	-0.0317383	-0.0854492
-0.0512695	-0.0317383	-0.0830078
-0.0473022	-0.0332642	-0.0805664
-0.0436401	-0.0350952	-0.0787354
-0.0408936	-0.0366211	-0.0775146
-0.038147	-0.0387573	-0.0769043
-0.0350952	-0.0411987	-0.0762939
-0.0308228	-0.0439453	-0.0747681
-0.027771	-0.0448608	-0.0726318
-0.0271606	-0.0448608	-0.0720215
-0.0280762	-0.0442505	-0.0723267
-0.0299072	-0.043335	-0.0732422
-0.0314331	-0.0427246	-0.0741577
-0.032959	-0.0424194	-0.0753784
-0.0338745	-0.0421143	-0.0759888
-0.0363159	-0.0405884	-0.0769043
-0.0396729	-0.0378418	-0.0775146
-0.0436401	-0.03479	-0.0784302
-0.0466919	-0.0326538	-0.0793457
-0.0494385	-0.0317383	-0.0811768
-0.0512695	-0.0305176	-0.0817871
-0.0509644	-0.0296021	-0.0805664
-0.0488281	-0.0296021	-0.0784302
-0.0463867	-0.0299072	-0.0762939
-0.0442505	-0.0296021	-0.0738525
-0.0415039	-0.0299072	-0.0714111
-0.0372314	-0.0317383	-0.0689697
-0.0317383	-0.0344849	-0.0662231
-0.0283813	-0.0357056	-0.0640869
-0.0274658	-0.0354004	-0.0628662
-0.0274658	-0.03479	-0.0622559
-0.0280762	-0.0335693	-0.0616455
-0.0292969	-0.0317383	-0.0610352
-0.0320435	-0.0289917	-0.0610352
-0.0357056	-0.0256348	-0.0613403
-0.0390625	-0.022583	-0.0616455
-0.0411987	-0.0201416	-0.0613403
-0.0421143	-0.0183105	-0.0604248
-0.0408936	-0.017395	-0.0582886
-0.038147	-0.017395	-0.055542
-0.0338745	-0.0183105	-0.0521851
-0.0296021	-0.0192261	-0.0488281
-0.0253296	-0.0201416	-0.0454712
-0.0213623	-0.020752	-0.0421143
-0.0183105	-0.0201416	-0.0384521
-0.0164795	-0.0186157	-0.0350952
-0.0146484	-0.0177002	-0.0323486
-0.012207	-0.0167847	-0.0289917
-0.010376	-0.015564	-0.0259399
-0.00946045	-0.0131226	-0.022583
-0.00946045	-0.0100708	-0.0195313
-0.00854492	-0.00793457	-0.0164795
-0.00701904	-0.00610352	-0.0131226
-0.00488281	-0.00457764	-0.00946045
-0.00213623	-0.00335693	-0.00549316
0	-0.00152588	-0.00152588
0.00183105	0.000305176	0.00213623
0.00366211	0.00213623	0.00579834
0.00610352	0.00396729	0.0100708
0.00946045	0.00610352	0.015564
0.0134277	0.00762939	0.0210571
0.0177002	0.00915527	0.0268555
0.0210571	0.0109863	0.0320435
0.0234985	0.0137329	0.0372314
0.0259399	0.0158691	0.0418091
0.0292969	0.0170898	0.0463867
0.032959	0.017395	0.050354
0.0366211	0.0180054	0.0546265
0.0402832	0.0189209	0.0592041
0.0445557	0.0195313	0.0640869
0.0479126	0.0204468	0.0683594
0.0497437	0.0219727	0.0717163
0.0512695	0.0241089	0.0753784
0.0531006	0.0265503	0.0796509
0.0546265	0.0289917	0.0836182
0.0552368	0.0317383	0.0869751
0.0552368	0.0341797	0.0894165
0.055542	0.0369263	0.0924683
0.0558472	0.0393677	0.0952148
0.0552368	0.0411987	0.0964355
0.0537109	0.0427246	0.0964355
0.0518799	0.0430298	0.0949097
0.0500488	0.0430298	0.0930786
0.0482178	0.0427246	0.0909424
0.0466919	0.0418091	0.088501
0.0448608	0.039978	0.0848389
0.0430298	0.0375366	0.0805664
0.0415039	0.0350952	0.0765991
0.0405884	0.0320435	0.0726318
0.0396729	0.0283813	0.0680542
0.0378418	0.0244141	0.0622559
0.0354004	0.0210571	0.0564575
0.0326538	0.017395	0.0500488
0.0296021	0.0140381	0.0436401
0.0253296	0.0115967	0.0369263
0.0192261	0.0106812	0.0299072
0.012207	0.00946045	0.0216675
0.00488281	0.00823975	0.0131226
-0.00274658	0.00732422	0.00457764
-0.0109863	0.00701904	-0.00396729
-0.0183105	0.00640869	-0.0119019
-0.0244141	0.00488281	-0.0195313
-0.0289917	0.00244141	-0.0265503
-0.0323486	-0.000305176	-0.0326538
-0.03479	-0.00305176	-0.0378418
-0.0363159	-0.00610352	-0.0424194
-0.0378418	-0.00946045	-0.0473022
-0.0390625	-0.012207	-0.0512695
-0.0411987	-0.0146484	-0.0558472
-0.0436401	-0.0167847	-0.0604248
-0.045166	-0.0183105	-0.0634766
-0.0466919	-0.0195313	-0.0662231
-0.0479126	-0.0201416	-0.0680542
-0.0479126	-0.0213623	-0.0692749
-0.0469971	-0.0228882	-0.0698853
-0.0457764	-0.0241089	-0.0698853
-0.0445557	-0.0247192	-0.0692749
-0.043335	-0.0253296	-0.0686646
-0.0415039	-0.0259399	-0.0674438
-0.0396729	-0.0268555	-0.0665283
-0.0378418	-0.027771	-0.0656128
-0.0378418	-0.0280762	-0.065918
-0.0390625	-0.0274658	-0.0665283
-0.0415039	-0.0265503	-0.0680542
-0.0442505	-0.0250244	-0.0692749
-0.0476074	-0.0234985	-0.071106
-0.050354	-0.0216675	-0.0720215
-0.0515747	-0.0201416	-0.0717163
-0.0512695	-0.0195313	-0.0708008
-0.0506592	-0.0186157	-0.0692749
-0.0506592	-0.017395	-0.0680542
-0.050354	-0.0161743	-0.0665283
-0.0488281	-0.015564	-0.0643921
-0.0460815	-0.0158691	-0.0619507
-0.0439453	-0.0167847	-0.06073
-0.0421143	-0.017395	-0.0595093
-0.039978	-0.0186157	-0.0585938
-0.038147	-0.0201416	-0.0582886
-0.0369263	-0.0219727	-0.0588989
-0.0366211	-0.022583	-0.0592041
-0.0375366	-0.0216675	-0.0592041
-0.0387573	-0.0204468	-0.0592041
-0.0393677	-0.0189209	-0.0582886
-0.0393677	-0.017395	-0.0567627
-0.0393677	-0.0158691	-0.0552368
-0.0396729	-0.0137329	-0.0534058
-0.0402832	-0.0115967	-0.0518799
-0.0411987	-0.0088501	-0.0500488
-0.0418091	-0.00671387	-0.0485229
-0.0421143	-0.00549316	-0.0476074
-0.0421143	-0.00549316	-0.0476074
-0.0424194	-0.00610352	-0.0485229
-0.0430298	-0.00671387	-0.0497437
-0.043335	-0.00762939	-0.0509644
-0.0430298	-0.00823975	-0.0512695
-0.0418091	-0.0088501	-0.0506592
-0.0405884	-0.00976563	-0.050354
-0.0390625	-0.0109863	-0.0500488
-0.0378418	-0.0119019	-0.0497437
-0.0369263	-0.0115967	-0.0485229
-0.0360107	-0.0109863	-0.0469971
-0.0350952	-0.010376	-0.0454712
-0.0344849	-0.00946045	-0.0439453
-0.03479	-0.00823975	-0.0430298
-0.0350952	-0.00732422	-0.0424194
-0.0357056	-0.00671387	-0.0424194
-0.0363159	-0.00610352	-0.0424194
-0.0366211	-0.00549316	-0.0421143
-0.0369263	-0.00518799	-0.0421143
-0.0363159	-0.00518799	-0.0415039
-0.0341797	-0.00671387	-0.0408936
-0.0323486	-0.00854492	-0.0408936
-0.0311279	-0.010376	-0.0415039
-0.0305176	-0.0115967	-0.0421143
-0.0299072	-0.0128174	-0.0427246
-0.0296021	-0.0140381	-0.0436401
-0.0302124	-0.0146484	-0.0448608
-0.0314331	-0.0149536	-0.0463867
-0.032959	-0.0143433	-0.0473022
-0.0344849	-0.0131226	-0.0476074
-0.0357056	-0.0125122	-0.0482178
-0.0357056	-0.0128174	-0.0485229
-0.0354004	-0.0134277	-0.0488281
-0.0350952	-0.0137329	-0.0488281
-0.0344849	-0.0140381	-0.0485229
-0.0338745	-0.0143433	-0.0482178
-0.0341797	-0.0143433	-0.0485229
-0.0344849	-0.0149536	-0.0494385
-0.03479	-0.0152588	-0.0500488
-0.0354004	-0.015564	-0.0509644
-0.0372314	-0.0152588	-0.0524902
-0.0390625	-0.0152588	-0.0543213
-0.0408936	-0.0146484	-0.055542
-0.0424194	-0.0146484	-0.0570679
-0.0430298	-0.0149536	-0.0579834
-0.0427246	-0.0161743	-0.0588989
-0.0424194	-0.0170898	-0.0595093
-0.0424194	-0.0177002	-0.0601196
-0.0421143	-0.0186157	-0.06073
-0.0411987	-0.0198364	-0.0610352
-0.0390625	-0.0213623	-0.0604248
-0.0372314	-0.022583	-0.0598145
-0.0366211	-0.0231934	-0.0598145
-0.0375366	-0.0222778	-0.0598145
-0.0384521	-0.0213623	-0.0598145
-0.0384521	-0.0213623	-0.0598145
-0.0375366	-0.0222778	-0.0598145
-0.0375366	-0.0228882	-0.0604248
-0.0384521	-0.0231934	-0.0616455
-0.0393677	-0.0234985	-0.0628662
-0.039978	-0.0244141	-0.0643921
-0.0402832	-0.0253296	-0.0656128
-0.0415039	-0.0256348	-0.0671387
-0.0430298	-0.0250244	-0.0680542
-0.0445557	-0.0238037	-0.0683594
-0.0457764	-0.0216675	-0.0674438
-0.0469971	-0.0189209	-0.065918
-0.0479126	-0.015564	-0.0634766
-0.0485229	-0.0112915	-0.0598145
-0.0491333	-0.00610352	-0.0552368
-0.0494385	-0.000305176	-0.0497437
-0.0491333	0.00518799	-0.0439453
-0.0482178	0.00976563	-0.0384521
-0.0469971	0.0140381	-0.032959
-0.045166	0.017395	-0.027771
-0.0421143	0.0198364	-0.0222778
-0.0393677	0.0213623	-0.0180054
-0.038147	0.0231934	-0.0149536
-0.0372314	0.0244141	-0.0128174
-0.0350952	0.0247192	-0.010376
-0.0317383	0.0238037	-0.00793457
-0.0280762	0.0222778	-0.00579834
-0.0253296	0.0210571	-0.00427246
-0.022583	0.0192261	-0.00335693
-0.0189209	0.0167847	-0.00213623
-0.0137329	0.0137329	0
-0.00793457	0.0100708	0.00213623
-0.00183105	0.00640869	0.00457764
0.00305176	0.00335693	0.00640869
0.00671387	0.00152588	0.00823975
0.0100708	0.000610352	0.0106812
0.0131226	0.000305176	0.0134277
0.0152588	0.000305176	0.015564
0.0161743	0.0012207	0.017395
0.0164795	0.00213623	0.0186157
0.0164795	0.00305176	0.0195313
0.015564	0.00396729	0.0195313
0.0137329	0.00427246	0.0180054
0.0115967	0.00396729	0.015564
0.00946045	0.00244141	0.0119019
0.00732422	-0.000915527	0.00640869
0.00579834	-0.00579834	0
0.00396729	-0.0112915	-0.00732422
0.00152588	-0.0164795	-0.0149536
-0.00152588	-0.0210571	-0.022583
-0.00549316	-0.0253296	-0.0308228
-0.0100708	-0.0289917	-0.0390625
-0.0140381	-0.0326538	-0.0466919
-0.0180054	-0.0357056	-0.0537109
-0.0234985	-0.0375366	-0.0610352
-0.0302124	-0.038147	-0.0683594
-0.0372314	-0.0378418	-0.0750732
-0.0430298	-0.0372314	-0.0802612
-0.0485229	-0.0369263	-0.0854492
-0.0543213	-0.0363159	-0.0906372
-0.0598145	-0.0357056	-0.09552
-0.0640869	-0.0354004	-0.0994873
-0.0668335	-0.0360107	-0.102844
-0.067749	-0.0369263	-0.104675
-0.0674438	-0.0378418	-0.105286
-0.0662231	-0.0393677	-0.105591
-0.0637817	-0.0408936	-0.104675
-0.0616455	-0.0418091	-0.103455
-0.0598145	-0.0424194	-0.102234
-0.0570679	-0.0436401	-0.100708
-0.0546265	-0.045166	-0.0997925
-0.0521851	-0.0460815	-0.0982666
-0.0515747	-0.0454712	-0.0970459
-0.0527954	-0.0430298	-0.0958252
-0.0546265	-0.0408936	-0.09552
-0.0567627	-0.039978	-0.0967407
-0.0582886	-0.0421143	-0.100403
-0.0592041	-0.0469971	-0.106201
-0.0598145	-0.0531006	-0.112915
-0.0592041	-0.0595093	-0.118713
-0.0567627	-0.065918	-0.122681
-0.0512695	-0.0720215	-0.123291
-0.0418091	-0.078125	-0.119934
-0.027771	-0.0839233	-0.111694
-0.00793457	-0.0866699	-0.0946045
0.0177002	-0.0808716	-0.0631714
0.0476074	-0.06073	-0.0131226
0.0790405	-0.0244141	0.0546265
0.110474	0.027771	0.138245
0.141296	0.0930786	0.234375
0.169373	0.171204	0.340576
0.192871	0.260925	0.453796
0.207214	0.36377	0.570984
0.209351	0.47699	0.68634
0.197449	0.593872	0.791321
0.171509	0.700989	0.872498
0.133667	0.784607	0.918274
0.0872803	0.834351	0.921631
0.0341797	0.845642	0.879822
-0.0250244	0.818176	0.793152
-0.0854492	0.751038	0.665588
-0.140381	0.646057	0.505676
-0.184021	0.510559	0.326538
-0.213013	0.35553	0.142517
-0.227661	0.194092	-0.0335693
-0.228577	0.0396729	-0.188904
-0.218201	-0.0961304	-0.314331
-0.198669	-0.203552	-0.402222
-0.172119	-0.276794	-0.448914
-0.142212	-0.314331	-0.456543
-0.11261	-0.318298	-0.430908
-0.0866699	-0.29541	-0.38208
-0.0665283	-0.254822	-0.32135
-0.0534058	-0.205383	-0.258789
-0.0469971	-0.155945	-0.202942
-0.0454712	-0.112305	-0.157776
-0.0479126	-0.0778198	-0.125732
-0.0518799	-0.0543213	-0.106201
-0.0561523	-0.0411987	-0.0973511
-0.0604248	-0.0363159	-0.0967407
-0.0628662	-0.0384521	-0.101318
-0.0637817	-0.0439453	-0.107727
-0.0637817	-0.0497437	-0.113525
-0.0634766	-0.0546265	-0.118103
-0.0628662	-0.0592041	-0.12207
-0.0616455	-0.062561	-0.124207
-0.0604248	-0.0643921	-0.124817
-0.0595093	-0.0643921	-0.123901
-0.0582886	-0.0631714	-0.12146
-0.057373	-0.06073	-0.118103
-0.0561523	-0.0588989	-0.115051
-0.0549316	-0.057373	-0.112305
-0.0546265	-0.0558472	-0.110474
-0.0549316	-0.0543213	-0.109253
-0.0558472	-0.0527954	-0.108643
-0.0558472	-0.0512695	-0.107117
-0.0558472	-0.0497437	-0.105591
-0.0558472	-0.0485229	-0.10437
-0.055542	-0.0473022	-0.102844
-0.0549316	-0.0460815	-0.101013
-0.0543213	-0.0445557	-0.098877
-0.0531006	-0.0430298	-0.0961304
-0.0515747	-0.0424194	-0.0939941
-0.0494385	-0.0418091	-0.0912476
-0.0473022	-0.0418091	-0.0891113
-0.0448608	-0.0424194	-0.0872803
-0.0430298	-0.0430298	-0.0860596
-0.0415039	-0.043335	-0.0848389
-0.0402832	-0.0436401	-0.0839233
-0.0396729	-0.0442505	-0.0839233
-0.0393677	-0.0445557	-0.0839233
-0.0390625	-0.0445557	-0.0836182
-0.0387573	-0.0442505	-0.0830078
-0.0384521	-0.0439453	-0.0823975
-0.038147	-0.0436401	-0.0817871
-0.0378418	-0.043335	-0.0811768
-0.0372314	-0.0427246	-0.0799561
-0.0363159	-0.0424194	-0.0787354
-0.0354004	-0.0418091	-0.0772095
-0.0344849	-0.0408936	-0.0753784
-0.0326538	-0.0402832	-0.072937
-0.0305176	-0.039978	-0.0704956
-0.0283813	-0.0396729	-0.0680542
-0.0268555	-0.0387573	-0.0656128
-0.0253296	-0.0378418	-0.0631714
-0.0231934	-0.0375366	-0.06073
-0.0210571	-0.0378418	-0.0588989
-0.0189209	-0.0375366	-0.0564575
-0.0177002	-0.0372314	-0.0549316
-0.0170898	-0.0363159	-0.0534058
-0.0164795	-0.0350952	-0.0515747
-0.0158691	-0.0335693	-0.0494385
-0.0143433	-0.032959	-0.0473022
-0.0125122	-0.0326538	-0.045166
-0.0106812	-0.0320435	-0.0427246
-0.010376	-0.0311279	-0.0415039
-0.0106812	-0.0302124	-0.0408936
-0.0106812	-0.0296021	-0.0402832
-0.0100708	-0.0296021	-0.0396729
-0.00915527	-0.0292969	-0.0384521
-0.00793457	-0.0283813	-0.0363159
-0.00579834	-0.027771	-0.0335693
-0.00396729	-0.0268555	-0.0308228
-0.00213623	-0.0253296	-0.0274658
-0.000610352	-0.0234985	-0.0241089
0.00152588	-0.0213623	-0.0198364
0.00457764	-0.0195313	-0.0149536
0.00762939	-0.0177002	-0.0100708
0.0109863	-0.0161743	-0.00518799
0.0146484	-0.0149536	-0.000305176
0.017395	-0.0137329	0.00366211
0.0192261	-0.0125122	0.00671387
0.0201416	-0.0109863	0.00915527
0.0213623	-0.00976563	0.0115967
0.0234985	-0.0088501	0.0146484
0.0262451	-0.00793457	0.0183105
0.0286865	-0.00640869	0.0222778
0.0311279	-0.00488281	0.0262451
0.0344849	-0.00366211	0.0308228
0.0387573	-0.00305176	0.0357056
0.0418091	-0.00213623	0.0396729
0.0445557	-0.000915527	0.0436401
0.0466919	0	0.0466919
0.0485229	0.0012207	0.0497437
0.0485229	0.00335693	0.0518799
0.0479126	0.00610352	0.0540161
0.0479126	0.00823975	0.0561523
0.0491333	0.0100708	0.0592041
0.050354	0.0112915	0.0616455
0.0512695	0.0131226	0.0643921
0.0537109	0.0143433	0.0680542
0.0567627	0.0149536	0.0717163
0.0604248	0.0152588	0.0756836
0.0643921	0.0146484	0.0790405
0.0680542	0.0140381	0.0820923
0.0704956	0.0134277	0.0839233
0.0704956	0.0134277	0.0839233
0.0689697	0.0137329	0.0827026
0.0665283	0.0140381	0.0805664
0.0631714	0.0140381	0.0772095
0.0595093	0.0134277	0.072937
0.055542	0.0125122	0.0680542
0.0512695	0.0109863	0.0622559
0.0469971	0.00976563	0.0567627
0.0439453	0.00823975	0.0521851
0.0411987	0.00671387	0.0479126
0.038147	0.00396729	0.0421143
0.0350952	0.0012207	0.0363159
0.0317383	-0.00213623	0.0296021
0.0274658	-0.00457764	0.0228882
0.0216675	-0.00640869	0.0152588
0.0146484	-0.00762939	0.00701904
0.00762939	-0.0088501	-0.0012207
0.00183105	-0.0100708	-0.00823975
-0.00244141	-0.0119019	-0.0143433
-0.00701904	-0.0131226	-0.0201416
-0.0112915	-0.0146484	-0.0259399
-0.0140381	-0.0164795	-0.0305176
-0.0158691	-0.0186157	-0.0344849
-0.0177002	-0.0204468	-0.038147
-0.0195313	-0.0216675	-0.0411987
-0.0198364	-0.0234985	-0.043335
-0.0192261	-0.0259399	-0.045166
-0.0192261	-0.0274658	-0.0466919
-0.020752	-0.0283813	-0.0491333
-0.0219727	-0.0292969	-0.0512695
-0.0228882	-0.0299072	-0.0527954
-0.0244141	-0.0296021	-0.0540161
-0.0256348	-0.0289917	-0.0546265
-0.0256348	-0.0292969	-0.0549316
-0.0253296	-0.0289917	-0.0543213
-0.0256348	-0.0286865	-0.0543213
-0.0262451	-0.0283813	-0.0546265
-0.0271606	-0.0286865	-0.0558472
-0.027771	-0.0292969	-0.0570679
-0.027771	-0.0299072	-0.0576782
-0.027771	-0.0305176	-0.0582886
-0.027771	-0.0311279	-0.0588989
-0.0274658	-0.0317383	-0.0592041
-0.0262451	-0.0323486	-0.0585938
-0.0247192	-0.0326538	-0.057373
-0.0228882	-0.0332642	-0.0561523
-0.0213623	-0.0335693	-0.0549316
-0.0204468	-0.0335693	-0.0540161
-0.0195313	-0.0332642	-0.0527954
-0.0192261	-0.0323486	-0.0515747
-0.0198364	-0.0305176	-0.050354
-0.020752	-0.0286865	-0.0494385
-0.0213623	-0.0274658	-0.0488281
-0.0219727	-0.0259399	-0.0479126
-0.0228882	-0.0238037	-0.0466919
-0.0231934	-0.0216675	-0.0448608
-0.0228882	-0.0201416	-0.0430298
-0.022583	-0.0186157	-0.0411987
-0.0210571	-0.0180054	-0.0390625
-0.0192261	-0.0177002	-0.0369263
-0.0164795	-0.0180054	-0.0344849
-0.0137329	-0.0186157	-0.0323486
-0.0131226	-0.0189209	-0.0320435
-0.0134277	-0.0189209	-0.0323486
-0.0140381	-0.0192261	-0.0332642
-0.0146484	-0.0198364	-0.0344849
-0.0158691	-0.0198364	-0.0357056
-0.017395	-0.0195313	-0.0369263
-0.0183105	-0.0186157	-0.0369263
-0.0183105	-0.0180054	-0.0363159
-0.0177002	-0.0180054	-0.0357056
-0.0170898	-0.0177002	-0.03479
-0.0167847	-0.017395	-0.0341797
-0.0161743	-0.0164795	-0.0326538
-0.015564	-0.0149536	-0.0305176
-0.0143433	-0.0140381	-0.0283813
-0.0128174	-0.0140381	-0.0268555
-0.0109863	-0.0152588	-0.0262451
-0.00946045	-0.0170898	-0.0265503
-0.00823975	-0.0186157	-0.0268555
-0.00701904	-0.0201416	-0.0271606
-0.00549316	-0.0210571	-0.0265503
-0.00335693	-0.0219727	-0.0253296
-0.00152588	-0.022583	-0.0241089
-0.000610352	-0.022583	-0.0231934
0	-0.0222778	-0.0222778
0	-0.0210571	-0.0210571
0.000305176	-0.0198364	-0.0195313
0.000305176	-0.0183105	-0.0180054
-0.000305176	-0.0167847	-0.0170898
-0.00152588	-0.0149536	-0.0164795
-0.00488281	-0.012207	-0.0170898
-0.00793457	-0.0106812	-0.0186157
-0.00793457	-0.012207	-0.0201416
-0.00610352	-0.015564	-0.0216675
-0.00396729	-0.0192261	-0.0231934
-0.00244141	-0.0219727	-0.0244141
-0.0012207	-0.0241089	-0.0253296
0	-0.0262451	-0.0262451
0.000610352	-0.0280762	-0.0274658
0.000915527	-0.0296021	-0.0286865
0.000915527	-0.0311279	-0.0302124
0.000915527	-0.0323486	-0.0314331
0.000915527	-0.0332642	-0.0323486
-0.000610352	-0.0326538	-0.0332642
-0.00244141	-0.0314331	-0.0338745
-0.00549316	-0.0299072	-0.0354004
-0.00823975	-0.0289917	-0.0372314
-0.0106812	-0.0283813	-0.0390625
-0.0125122	-0.0289917	-0.0415039
-0.0131226	-0.0302124	-0.043335
-0.0134277	-0.0317383	-0.045166
-0.0134277	-0.032959	-0.0463867
-0.0137329	-0.0341797	-0.0479126
-0.0140381	-0.0350952	-0.0491333
-0.0140381	-0.0360107	-0.0500488
-0.0128174	-0.0372314	-0.0500488
-0.0106812	-0.038147	-0.0488281
-0.00823975	-0.0387573	-0.0469971
-0.00640869	-0.038147	-0.0445557
-0.00549316	-0.0375366	-0.0430298
-0.00457764	-0.0372314	-0.0418091
-0.00457764	-0.0366211	-0.0411987
-0.00579834	-0.0350952	-0.0408936
-0.00732422	-0.0335693	-0.0408936
-0.00915527	-0.0323486	-0.0415039
-0.0106812	-0.0314331	-0.0421143
-0.012207	-0.0311279	-0.043335
-0.0125122	-0.0320435	-0.0445557
-0.012207	-0.0338745	-0.0460815
-0.0112915	-0.0357056	-0.0469971
-0.0100708	-0.0375366	-0.0476074
-0.0088501	-0.0390625	-0.0479126
-0.00793457	-0.039978	-0.0479126
-0.00671387	-0.0405884	-0.0473022
-0.00518799	-0.0408936	-0.0460815
-0.00457764	-0.0402832	-0.0448608
-0.00640869	-0.0375366	-0.0439453
-0.0088501	-0.0341797	-0.0430298
-0.0109863	-0.0305176	-0.0415039
-0.0128174	-0.0268555	-0.0396729
-0.0143433	-0.0228882	-0.0372314
-0.0143433	-0.0192261	-0.0335693
-0.0131226	-0.0161743	-0.0292969
-0.010376	-0.0134277	-0.0238037
-0.00762939	-0.0112915	-0.0189209
-0.00549316	-0.00915527	-0.0146484
-0.00457764	-0.00671387	-0.0112915
-0.00366211	-0.00396729	-0.00762939
-0.00152588	-0.0012207	-0.00274658
0.0012207	0.0012207	0.00244141
0.00274658	0.00427246	0.00701904
0.00274658	0.00762939	0.010376
0.00244141	0.0106812	0.0131226
0.00274658	0.0128174	0.015564
0.00488281	0.0131226	0.0180054
0.00793457	0.0115967	0.0195313
0.0112915	0.0100708	0.0213623
0.0152588	0.00701904	0.0222778
0.0204468	0.00274658	0.0231934
0.0265503	-0.00305176	0.0234985
0.0332642	-0.00823975	0.0250244
0.0390625	-0.0119019	0.0271606
0.0439453	-0.0143433	0.0296021
0.0469971	-0.0152588	0.0317383
0.0491333	-0.0146484	0.0344849
0.0506592	-0.0134277	0.0372314
0.0518799	-0.0115967	0.0402832
0.0531006	-0.00946045	0.0436401
0.0534058	-0.00762939	0.0457764
0.0524902	-0.00640869	0.0460815
0.050354	-0.00579834	0.0445557
0.0476074	-0.00671387	0.0408936
0.0460815	-0.0100708	0.0360107
0.045166	-0.015564	0.0296021
0.0436401	-0.0210571	0.022583
0.0415039	-0.0265503	0.0149536
0.0378418	-0.0317383	0.00610352
0.0332642	-0.0360107	-0.00274658
0.0274658	-0.0393677	-0.0119019
0.0210571	-0.0415039	-0.0204468
0.0146484	-0.0424194	-0.027771
0.00854492	-0.0427246	-0.0341797
0.00274658	-0.043335	-0.0405884
-0.00305176	-0.043335	-0.0463867
-0.00915527	-0.043335	-0.0524902
-0.0143433	-0.0430298	-0.057373
-0.0186157	-0.043335	-0.0619507
-0.0216675	-0.0436401	-0.0653076
-0.0234985	-0.045166	-0.0686646
-0.0238037	-0.0469971	-0.0708008
-0.0241089	-0.0494385	-0.0735474
-0.0241089	-0.0518799	-0.0759888
-0.0234985	-0.0540161	-0.0775146
-0.0228882	-0.0552368	-0.078125
-0.0219727	-0.055542	-0.0775146
-0.0210571	-0.0561523	-0.0772095
-0.0195313	-0.0564575	-0.0759888
-0.0186157	-0.0567627	-0.0753784
-0.0183105	-0.0567627	-0.0750732
-0.0183105	-0.0561523	-0.0744629
-0.0192261	-0.0549316	-0.0741577
-0.0201416	-0.0543213	-0.0744629
-0.0204468	-0.055542	-0.0759888
-0.0204468	-0.0601196	-0.0805664
-0.0204468	-0.0674438	-0.0878906
-0.0204468	-0.0759888	-0.0964355
-0.0198364	-0.083313	-0.103149
-0.017395	-0.0894165	-0.106812
-0.0128174	-0.0946045	-0.107422
-0.00427246	-0.098877	-0.103149
0.0088501	-0.101624	-0.0927734
0.0271606	-0.0991821	-0.0720215
0.0506592	-0.0872803	-0.0366211
0.0787354	-0.0622559	0.0164795
0.109558	-0.0231934	0.0863647
0.141907	0.0283813	0.170288
0.174561	0.0915527	0.266113
0.205994	0.165405	0.371399
0.232239	0.249939	0.482178
0.248718	0.346985	0.595703
0.25238	0.453186	0.705566
0.241394	0.562134	0.803528
0.21637	0.6604	0.87677
0.178833	0.735474	0.914307
0.13031	0.778503	0.908813
0.0723267	0.786438	0.858765
0.00823975	0.756836	0.765076
-0.0558472	0.690002	0.634155
-0.11322	0.587769	0.474548
-0.158691	0.457458	0.298767
-0.188599	0.308838	0.120239
-0.202942	0.154724	-0.0482178
-0.202942	0.00793457	-0.195007
-0.190125	-0.120239	-0.310364
-0.167236	-0.220642	-0.387878
-0.137329	-0.288391	-0.42572
-0.10437	-0.321655	-0.426025
-0.0723267	-0.325012	-0.397339
-0.0457764	-0.30426	-0.350037
-0.0268555	-0.266418	-0.293274
-0.015564	-0.220642	-0.236206
-0.0115967	-0.174255	-0.185852
-0.0146484	-0.133057	-0.147705
-0.0210571	-0.100098	-0.121155
-0.027771	-0.0778198	-0.105591
-0.032959	-0.0646973	-0.0976563
-0.0366211	-0.0585938	-0.0952148
-0.0387573	-0.057373	-0.0961304
-0.0390625	-0.0598145	-0.098877
-0.0375366	-0.0643921	-0.101929
-0.03479	-0.0692749	-0.104065
-0.0314331	-0.0735474	-0.10498
-0.0286865	-0.0759888	-0.104675
-0.0265503	-0.0778198	-0.10437
-0.0241089	-0.0790405	-0.103149
-0.0219727	-0.0796509	-0.101624
-0.020752	-0.0793457	-0.100098
-0.0204468	-0.0778198	-0.0982666
-0.0210571	-0.0756836	-0.0967407
-0.0216675	-0.0738525	-0.09552
-0.0216675	-0.072937	-0.0946045
-0.0219727	-0.0714111	-0.0933838
-0.0228882	-0.0689697	-0.0918579
-0.0241089	-0.065918	-0.0900269
-0.0247192	-0.0634766	-0.0881958
-0.0234985	-0.0619507	-0.0854492
-0.0210571	-0.0613403	-0.0823975
-0.0183105	-0.0613403	-0.0796509
-0.0167847	-0.0610352	-0.0778198
-0.0152588	-0.0610352	-0.0762939
-0.0125122	-0.0610352	-0.0735474
-0.00915527	-0.0619507	-0.071106
-0.00579834	-0.0637817	-0.0695801
-0.00335693	-0.065918	-0.0692749
-0.00152588	-0.0686646	-0.0701904
-0.000305176	-0.071106	-0.0714111
0	-0.0723267	-0.0723267
-0.000610352	-0.0723267	-0.072937
-0.00183105	-0.0714111	-0.0732422
-0.00396729	-0.0701904	-0.0741577
-0.00518799	-0.0692749	-0.0744629
-0.00488281	-0.0686646	-0.0735474
-0.00335693	-0.067749	-0.071106
-0.00305176	-0.0662231	-0.0692749
-0.00427246	-0.0634766	-0.067749
-0.00579834	-0.0613403	-0.0671387
-0.00549316	-0.0598145	-0.0653076
-0.00427246	-0.0598145	-0.0640869
-0.00274658	-0.06073	-0.0634766
-0.0012207	-0.0622559	-0.0634766
-0.000305176	-0.0631714	-0.0634766
0.000305176	-0.0637817	-0.0634766
0.000305176	-0.0637817	-0.0634766
0.000915527	-0.0634766	-0.062561
0.00244141	-0.0628662	-0.0604248
0.00427246	-0.0619507	-0.0576782
0.00610352	-0.06073	-0.0546265
0.00915527	-0.0595093	-0.050354
0.0134277	-0.0588989	-0.0454712
0.0183105	-0.0585938	-0.0402832
0.0234985	-0.0579834	-0.0344849
0.0280762	-0.0570679	-0.0289917
0.0320435	-0.0561523	-0.0241089
0.0344849	-0.055542	-0.0210571
0.0366211	-0.0552368	-0.0186157
0.0378418	-0.0540161	-0.0161743
0.0390625	-0.0527954	-0.0137329
0.039978	-0.0518799	-0.0119019
0.0411987	-0.0509644	-0.00976563
0.0421143	-0.050354	-0.00823975
0.0436401	-0.0497437	-0.00610352
0.0457764	-0.0485229	-0.00274658
0.0482178	-0.0476074	0.000610352
0.0515747	-0.0469971	0.00457764
0.0558472	-0.0469971	0.0088501
0.0598145	-0.0463867	0.0134277
0.0631714	-0.0448608	0.0183105
0.0653076	-0.0424194	0.0228882
0.0662231	-0.0390625	0.0271606
0.0665283	-0.0357056	0.0308228
0.0665283	-0.0326538	0.0338745
0.0668335	-0.0299072	0.0369263
0.0668335	-0.0271606	0.0396729
0.0671387	-0.0247192	0.0424194
0.0680542	-0.022583	0.0454712
0.0695801	-0.0201416	0.0494385
0.0717163	-0.0180054	0.0537109
0.0738525	-0.0152588	0.0585938
0.0769043	-0.0131226	0.0637817
0.0805664	-0.0115967	0.0689697
0.0845337	-0.0100708	0.0744629
0.0881958	-0.00823975	0.0799561
0.0912476	-0.00610352	0.085144
0.0939941	-0.00457764	0.0894165
0.0964355	-0.00366211	0.0927734
0.0985718	-0.00305176	0.09552
0.100098	-0.00244141	0.0976563
0.100708	-0.00183105	0.098877
0.101013	-0.000915527	0.100098
0.101013	0	0.101013
0.101318	0.0012207	0.102539
0.101013	0.00213623	0.103149
0.100708	0.00274658	0.103455
0.100403	0.00335693	0.10376
0.0991821	0.00427246	0.103455
0.0982666	0.00457764	0.102844
0.0976563	0.00457764	0.102234
0.0958252	0.00488281	0.100708
0.0915527	0.00610352	0.0976563
0.0869751	0.00640869	0.0933838
0.0839233	0.00457764	0.088501
0.0814819	0.00152588	0.0830078
0.0793457	-0.00152588	0.0778198
0.0762939	-0.00396729	0.0723267
0.0726318	-0.00610352	0.0665283
0.0695801	-0.00946045	0.0601196
0.0665283	-0.0131226	0.0534058
0.0640869	-0.0167847	0.0473022
0.06073	-0.0192261	0.0415039
0.0570679	-0.0213623	0.0357056
0.0527954	-0.0222778	0.0305176
0.0473022	-0.022583	0.0247192
0.0415039	-0.022583	0.0189209
0.0354004	-0.022583	0.0128174
0.0299072	-0.0228882	0.00701904
0.0247192	-0.0231934	0.00152588
0.0198364	-0.0231934	-0.00335693
0.0152588	-0.0238037	-0.00854492
0.0115967	-0.0250244	-0.0134277
0.00854492	-0.0268555	-0.0183105
0.00579834	-0.0289917	-0.0231934
0.00427246	-0.0308228	-0.0265503
0.00305176	-0.0320435	-0.0289917
0.00213623	-0.032959	-0.0308228
0.00183105	-0.0341797	-0.0323486
0.00213623	-0.0357056	-0.0335693
0.00244141	-0.0369263	-0.0344849
0.00305176	-0.0384521	-0.0354004
0.00427246	-0.039978	-0.0357056
0.00518799	-0.0415039	-0.0363159
0.00579834	-0.0427246	-0.0369263
0.00579834	-0.043335	-0.0375366
0.00549316	-0.0439453	-0.0384521
0.00427246	-0.0439453	-0.0396729
0.00305176	-0.043335	-0.0402832
0.00183105	-0.0421143	-0.0402832
0.00152588	-0.0405884	-0.0390625
0.00244141	-0.0393677	-0.0369263
0.00366211	-0.0384521	-0.03479
0.00518799	-0.0372314	-0.0320435
0.00640869	-0.0357056	-0.0292969
0.00762939	-0.0344849	-0.0268555
0.00976563	-0.0338745	-0.0241089
0.0125122	-0.0341797	-0.0216675
0.0146484	-0.0344849	-0.0198364
0.0152588	-0.0341797	-0.0189209
0.0149536	-0.0335693	-0.0186157
0.0143433	-0.0332642	-0.0189209
0.0140381	-0.0332642	-0.0192261
0.0131226	-0.0323486	-0.0192261
0.0134277	-0.0320435	-0.0186157
0.0143433	-0.0317383	-0.017395
0.0143433	-0.0305176	-0.0161743
0.0149536	-0.0292969	-0.0143433
0.0158691	-0.0283813	-0.0125122
0.0167847	-0.0274658	-0.0106812
0.0177002	-0.0265503	-0.0088501
0.0189209	-0.0256348	-0.00671387
0.0195313	-0.0244141	-0.00488281
0.0186157	-0.022583	-0.00396729
0.0167847	-0.020752	-0.00396729
0.0149536	-0.0186157	-0.00366211
0.0134277	-0.0167847	-0.00335693
0.0128174	-0.015564	-0.00274658
0.012207	-0.0152588	-0.00305176
0.0115967	-0.0149536	-0.00335693
0.0106812	-0.0146484	-0.00396729
0.00976563	-0.0149536	-0.00518799
0.00915527	-0.0158691	-0.00671387
0.00915527	-0.0170898	-0.00793457
0.0100708	-0.0186157	-0.00854492
0.0119019	-0.0201416	-0.00823975
0.0128174	-0.020752	-0.00793457
0.0131226	-0.020752	-0.00762939
0.0137329	-0.0204468	-0.00671387
0.0152588	-0.020752	-0.00549316
0.0170898	-0.020752	-0.00366211
0.0189209	-0.0204468	-0.00152588
0.0210571	-0.0198364	0.0012207
0.0231934	-0.0198364	0.00335693
0.0244141	-0.0204468	0.00396729
0.0253296	-0.0219727	0.00335693
0.0256348	-0.0231934	0.00244141
0.0253296	-0.0247192	0.000610352
0.0238037	-0.0256348	-0.00183105
0.0219727	-0.0262451	-0.00427246
0.0210571	-0.0271606	-0.00610352
0.020752	-0.0274658	-0.00671387
0.0198364	-0.0274658	-0.00762939
0.017395	-0.0268555	-0.00946045
0.0143433	-0.0256348	-0.0112915
0.0115967	-0.0241089	-0.0125122
0.010376	-0.0234985	-0.0131226
0.00976563	-0.0231934	-0.0134277
0.00854492	-0.0234985	-0.0149536
0.00640869	-0.0228882	-0.0164795
0.00396729	-0.022583	-0.0186157
0.00274658	-0.022583	-0.0198364
0.00244141	-0.0234985	-0.0210571
0.00427246	-0.0253296	-0.0210571
0.00671387	-0.0271606	-0.0204468
0.00854492	-0.027771	-0.0192261
0.00976563	-0.027771	-0.0180054
0.0109863	-0.0283813	-0.017395
0.0119019	-0.0286865	-0.0167847
0.0128174	-0.0292969	-0.0164795
0.0137329	-0.0302124	-0.0164795
0.0134277	-0.0308228	-0.017395
0.0119019	-0.0311279	-0.0192261
0.010376	-0.0317383	-0.0213623
0.00793457	-0.032959	-0.0250244
0.00610352	-0.0344849	-0.0283813
0.00427246	-0.0354004	-0.0311279
0.00213623	-0.0354004	-0.0332642
-0.000305176	-0.0350952	-0.0354004
-0.00305176	-0.0338745	-0.0369263
-0.00488281	-0.0332642	-0.038147
-0.00579834	-0.0326538	-0.0384521
-0.00579834	-0.0323486	-0.038147
-0.00579834	-0.0311279	-0.0369263
-0.00610352	-0.0292969	-0.0354004
-0.00579834	-0.0271606	-0.032959
-0.00518799	-0.0244141	-0.0296021
-0.00457764	-0.0216675	-0.0262451
-0.00396729	-0.0186157	-0.022583
-0.00305176	-0.015564	-0.0186157
-0.00213623	-0.0125122	-0.0146484
-0.00183105	-0.0088501	-0.0106812
-0.00152588	-0.00457764	-0.00610352
-0.0012207	0	-0.0012207
-0.0012207	0.00488281	0.00366211
-0.000915527	0.0088501	0.00793457
-0.000305176	0.0115967	0.0112915
0.0012207	0.0137329	0.0149536
0.00396729	0.0146484	0.0186157
0.00701904	0.0143433	0.0213623
0.00976563	0.0137329	0.0234985
0.012207	0.0128174	0.0250244
0.0140381	0.0119019	0.0259399
0.0161743	0.0100708	0.0262451
0.0192261	0.00762939	0.0268555
0.0231934	0.00518799	0.0283813
0.0268555	0.00366211	0.0305176
0.0299072	0.00244141	0.0323486
0.0332642	0.00152588	0.03479
0.0366211	0.00152588	0.038147
0.0390625	0.00244141	0.0415039
0.0411987	0.00427246	0.0454712
0.0418091	0.00579834	0.0476074
0.0418091	0.00671387	0.0485229
0.0427246	0.00518799	0.0479126
0.0436401	0.00305176	0.0466919
0.043335	0.000610352	0.0439453
0.0424194	-0.00335693	0.0390625
0.0402832	-0.00793457	0.0323486
0.0372314	-0.0134277	0.0238037
0.0341797	-0.0195313	0.0146484
0.0308228	-0.0250244	0.00579834
0.0262451	-0.0296021	-0.00335693
0.0204468	-0.0326538	-0.012207
0.0134277	-0.0350952	-0.0216675
0.00518799	-0.0360107	-0.0308228
-0.00366211	-0.0360107	-0.0396729
-0.012207	-0.0350952	-0.0473022
-0.0201416	-0.0344849	-0.0546265
-0.0265503	-0.0344849	-0.0610352
-0.0323486	-0.03479	-0.0671387
-0.0366211	-0.0357056	-0.0723267
-0.0393677	-0.0378418	-0.0772095
-0.0408936	-0.0402832	-0.0811768
-0.0418091	-0.0424194	-0.0842285
-0.0421143	-0.0445557	-0.0866699
-0.0427246	-0.0463867	-0.0891113
-0.0439453	-0.0463867	-0.090332
-0.0445557	-0.0466919	-0.0912476
-0.0439453	-0.0473022	-0.0912476
-0.0427246	-0.0479126	-0.0906372
-0.0421143	-0.0473022	-0.0894165
-0.0421143	-0.0457764	-0.0878906
-0.0421143	-0.0445557	-0.0866699
-0.0421143	-0.043335	-0.0854492
-0.0415039	-0.0424194	-0.0839233
-0.0411987	-0.0418091	-0.0830078
-0.0408936	-0.0430298	-0.0839233
-0.0415039	-0.0463867	-0.0878906
-0.0424194	-0.0524902	-0.0949097
-0.0439453	-0.0598145	-0.10376
-0.0457764	-0.0668335	-0.11261
-0.0473022	-0.0717163	-0.119019
-0.0460815	-0.0759888	-0.12207
-0.0411987	-0.0805664	-0.121765
-0.0317383	-0.0845337	-0.116272
-0.0167847	-0.0854492	-0.102234
0.00335693	-0.0784302	-0.0750732
0.0292969	-0.0601196	-0.0308228
0.0604248	-0.0292969	0.0311279
0.0939941	0.0149536	0.108948
0.128174	0.0714111	0.199585
0.161438	0.136719	0.298157
0.191345	0.211487	0.402832
0.212097	0.298157	0.510254
0.220032	0.398254	0.618286
0.213928	0.506897	0.720825
0.192566	0.612793	0.805359
0.155945	0.704346	0.860291
0.106506	0.770569	0.877075
0.0482178	0.803223	0.85144
-0.0152588	0.799866	0.784607
-0.0796509	0.759583	0.679932
-0.13916	0.683899	0.544739
-0.187988	0.575867	0.387878
-0.223083	0.44281	0.219727
-0.243225	0.294495	0.0512695
-0.247192	0.143127	-0.104065
-0.236816	0.0012207	-0.235596
-0.215149	-0.120239	-0.335388
-0.185547	-0.213013	-0.39856
-0.153198	-0.273132	-0.426331
-0.121765	-0.300598	-0.422363
-0.0939941	-0.299988	-0.393982
-0.0717163	-0.27832	-0.350037
-0.055542	-0.244141	-0.299683
-0.0469971	-0.203247	-0.250244
-0.045166	-0.162354	-0.20752
-0.0469971	-0.126648	-0.173645
-0.0506592	-0.0982666	-0.148926
-0.0549316	-0.0775146	-0.132446
-0.0592041	-0.0640869	-0.123291
-0.062561	-0.0570679	-0.119629
-0.0640869	-0.0540161	-0.118103
-0.0643921	-0.0537109	-0.118103
-0.0643921	-0.0552368	-0.119629
-0.0646973	-0.0567627	-0.12146
-0.0653076	-0.0576782	-0.122986
-0.065918	-0.0579834	-0.123901
-0.065918	-0.0582886	-0.124207
-0.0650024	-0.0582886	-0.123291
-0.0640869	-0.0579834	-0.12207
-0.0640869	-0.0570679	-0.121155
-0.0637817	-0.0564575	-0.120239
-0.0619507	-0.0558472	-0.117798
-0.0598145	-0.055542	-0.115356
-0.0576782	-0.0552368	-0.112915
-0.055542	-0.0561523	-0.111694
-0.0540161	-0.0570679	-0.111084
-0.0534058	-0.0570679	-0.110474
-0.0527954	-0.0564575	-0.109253
-0.0521851	-0.0558472	-0.108032
-0.0512695	-0.0552368	-0.106506
-0.0500488	-0.0546265	-0.104675
-0.0485229	-0.0543213	-0.102844
-0.0473022	-0.0537109	-0.101013
-0.0463867	-0.0527954	-0.0991821
-0.045166	-0.0521851	-0.0973511
-0.0436401	-0.0515747	-0.0952148
-0.0427246	-0.0509644	-0.093689
-0.043335	-0.0497437	-0.0930786
-0.0445557	-0.0488281	-0.0933838
-0.0454712	-0.0479126	-0.0933838
-0.0466919	-0.0469971	-0.093689
-0.0479126	-0.0460815	-0.0939941
-0.0491333	-0.045166	-0.0942993
-0.0491333	-0.0442505	-0.0933838
-0.0479126	-0.0439453	-0.0918579
-0.0466919	-0.043335	-0.0900269
-0.0463867	-0.0427246	-0.0891113
-0.0463867	-0.0415039	-0.0878906
-0.0454712	-0.0415039	-0.0869751
-0.0439453	-0.0415039	-0.0854492
-0.043335	-0.0408936	-0.0842285
-0.0430298	-0.039978	-0.0830078
-0.0424194	-0.0396729	-0.0820923
-0.0405884	-0.0396729	-0.0802612
-0.0378418	-0.0411987	-0.0790405
-0.0344849	-0.0430298	-0.0775146
-0.0317383	-0.0439453	-0.0756836
-0.0289917	-0.0442505	-0.0732422
-0.0262451	-0.0442505	-0.0704956
-0.0238037	-0.0436401	-0.0674438
-0.0222778	-0.0424194	-0.0646973
-0.0210571	-0.0408936	-0.0619507
-0.020752	-0.0393677	-0.0601196
-0.0213623	-0.0369263	-0.0582886
-0.022583	-0.0341797	-0.0567627
-0.0244141	-0.0311279	-0.055542
-0.0250244	-0.0286865	-0.0537109
-0.0241089	-0.0274658	-0.0515747
-0.0222778	-0.0271606	-0.0494385
-0.0198364	-0.0280762	-0.0479126
-0.0177002	-0.0289917	-0.0466919
-0.015564	-0.0289917	-0.0445557
-0.0131226	-0.0286865	-0.0418091
-0.010376	-0.0280762	-0.0384521
-0.0088501	-0.0268555	-0.0357056
-0.00793457	-0.0247192	-0.0326538
-0.00762939	-0.0216675	-0.0292969
-0.00701904	-0.0186157	-0.0256348
-0.00488281	-0.0167847	-0.0216675
-0.00183105	-0.0158691	-0.0177002
0.0012207	-0.0143433	-0.0131226
0.00366211	-0.012207	-0.00854492
0.00610352	-0.010376	-0.00427246
0.00854492	-0.0088501	-0.000305176
0.0115967	-0.00793457	0.00366211
0.0152588	-0.00762939	0.00762939
0.0189209	-0.00732422	0.0115967
0.020752	-0.00549316	0.0152588
0.020752	-0.00244141	0.0183105
0.020752	0.000610352	0.0213623
0.0222778	0.00274658	0.0250244
0.0244141	0.00457764	0.0289917
0.0259399	0.00640869	0.0323486
0.027771	0.00854492	0.0363159
0.0292969	0.0109863	0.0402832
0.0311279	0.0137329	0.0448608
0.03479	0.0149536	0.0497437
0.0402832	0.0149536	0.0552368
0.0457764	0.0140381	0.0598145
0.0494385	0.0143433	0.0637817
0.0506592	0.0161743	0.0668335
0.0512695	0.0180054	0.0692749
0.0521851	0.0192261	0.0714111
0.0537109	0.0195313	0.0732422
0.0546265	0.0195313	0.0741577
0.0537109	0.0198364	0.0735474
0.0512695	0.0198364	0.071106
0.0479126	0.0198364	0.067749
0.043335	0.0198364	0.0631714
0.0387573	0.0192261	0.0579834
0.0341797	0.0183105	0.0524902
0.0302124	0.0167847	0.0469971
0.0265503	0.0152588	0.0418091
0.0234985	0.0128174	0.0363159
0.0198364	0.010376	0.0302124
0.0158691	0.00793457	0.0238037
0.012207	0.00610352	0.0183105
0.00854492	0.00518799	0.0137329
0.00396729	0.00549316	0.00946045
-0.000610352	0.00549316	0.00488281
-0.00579834	0.00518799	-0.000610352
-0.0115967	0.00518799	-0.00640869
-0.0180054	0.00549316	-0.0125122
-0.0241089	0.00549316	-0.0186157
-0.0302124	0.00518799	-0.0250244
-0.0357056	0.00488281	-0.0308228
-0.0408936	0.00366211	-0.0372314
-0.045166	0.00213623	-0.0430298
-0.0482178	0.000305176	-0.0479126
-0.0500488	-0.00152588	-0.0515747
-0.0509644	-0.00366211	-0.0546265
-0.0515747	-0.00640869	-0.0579834
-0.0518799	-0.00854492	-0.0604248
-0.0527954	-0.0100708	-0.0628662
-0.0537109	-0.0106812	-0.0643921
-0.055542	-0.0109863	-0.0665283
-0.057373	-0.0109863	-0.0683594
-0.0588989	-0.0112915	-0.0701904
-0.0604248	-0.0109863	-0.0714111
-0.0616455	-0.0106812	-0.0723267
-0.0622559	-0.0115967	-0.0738525
-0.0631714	-0.0119019	-0.0750732
-0.065918	-0.0109863	-0.0769043
-0.0683594	-0.0100708	-0.0784302
-0.0692749	-0.0106812	-0.0799561
-0.0695801	-0.0112915	-0.0808716
-0.0695801	-0.0119019	-0.0814819
-0.0695801	-0.012207	-0.0817871
-0.0686646	-0.0125122	-0.0811768
-0.0674438	-0.0128174	-0.0802612
-0.065918	-0.0128174	-0.0787354
-0.0656128	-0.012207	-0.0778198
-0.0650024	-0.0109863	-0.0759888
-0.0643921	-0.0100708	-0.0744629
-0.0631714	-0.00915527	-0.0723267
-0.062561	-0.00854492	-0.071106
-0.0628662	-0.00762939	-0.0704956
-0.0637817	-0.00640869	-0.0701904
-0.0643921	-0.00518799	-0.0695801
-0.0643921	-0.00488281	-0.0692749
-0.0640869	-0.00518799	-0.0692749
-0.0646973	-0.00518799	-0.0698853
-0.0662231	-0.00457764	-0.0708008
-0.0674438	-0.00335693	-0.0708008
-0.0674438	-0.00213623	-0.0695801
-0.0662231	-0.000915527	-0.0671387
-0.0653076	0.000305176	-0.0650024
-0.0656128	0.00183105	-0.0637817
-0.065918	0.00335693	-0.062561
-0.065918	0.00457764	-0.0613403
-0.0646973	0.00488281	-0.0598145
-0.0622559	0.00427246	-0.0579834
-0.0598145	0.00366211	-0.0561523
-0.0588989	0.00366211	-0.0552368
-0.0588989	0.00335693	-0.055542
-0.0598145	0.00305176	-0.0567627
-0.06073	0.00366211	-0.0570679
-0.0616455	0.00427246	-0.057373
-0.0628662	0.00518799	-0.0576782
-0.0643921	0.00610352	-0.0582886
-0.0662231	0.00701904	-0.0592041
-0.0674438	0.00793457	-0.0595093
-0.067749	0.00762939	-0.0601196
-0.067749	0.00671387	-0.0610352
-0.0668335	0.00579834	-0.0610352
-0.0665283	0.00488281	-0.0616455
-0.0662231	0.00427246	-0.0619507
-0.065918	0.00335693	-0.062561
-0.0656128	0.00213623	-0.0634766
-0.0653076	0.000915527	-0.0643921
-0.0650024	0	-0.0650024
-0.0650024	-0.000305176	-0.0653076
-0.0656128	0.000305176	-0.0653076
-0.0662231	0.0012207	-0.0650024
-0.0665283	0.00152588	-0.0650024
-0.065918	0.000915527	-0.0650024
-0.0650024	0.000305176	-0.0646973
-0.0646973	0.000610352	-0.0640869
-0.0653076	0.000915527	-0.0643921
-0.065918	0.000610352	-0.0653076
-0.065918	-0.000305176	-0.0662231
-0.0656128	-0.00213623	-0.067749
-0.0656128	-0.00396729	-0.0695801
-0.0653076	-0.00549316	-0.0708008
-0.0665283	-0.00640869	-0.072937
-0.067749	-0.00732422	-0.0750732
-0.0689697	-0.00762939	-0.0765991
-0.0698853	-0.00762939	-0.0775146
-0.0698853	-0.00732422	-0.0772095
-0.0698853	-0.00610352	-0.0759888
-0.0701904	-0.00396729	-0.0741577
-0.071106	-0.00152588	-0.0726318
-0.0723267	0.000610352	-0.0717163
-0.072937	0.00244141	-0.0704956
-0.0723267	0.00305176	-0.0692749
-0.071106	0.00274658	-0.0683594
-0.0695801	0.00183105	-0.067749
-0.0683594	0.000305176	-0.0680542
-0.067749	-0.0012207	-0.0689697
-0.0671387	-0.00335693	-0.0704956
-0.0671387	-0.00579834	-0.072937
-0.067749	-0.00762939	-0.0753784
-0.0692749	-0.00854492	-0.0778198
-0.071106	-0.0088501	-0.0799561
-0.072937	-0.0088501	-0.0817871
-0.0750732	-0.00762939	-0.0827026
-0.0769043	-0.00640869	-0.083313
-0.078125	-0.00549316	-0.0836182
-0.0796509	-0.00396729	-0.0836182
-0.0814819	-0.00183105	-0.083313
-0.0827026	-0.000305176	-0.0830078
-0.0820923	0.000305176	-0.0817871
-0.0811768	0.000915527	-0.0802612
-0.0796509	0.000610352	-0.0790405
-0.0778198	-0.000610352	-0.0784302
-0.0765991	-0.00183105	-0.0784302
-0.0747681	-0.00335693	-0.078125
-0.0732422	-0.00457764	-0.0778198
-0.072937	-0.00549316	-0.0784302
-0.0726318	-0.00549316	-0.078125
-0.0723267	-0.00457764	-0.0769043
-0.0720215	-0.00366211	-0.0756836
-0.0720215	-0.00183105	-0.0738525
-0.072937	0.000915527	-0.0720215
-0.0747681	0.00518799	-0.0695801
-0.0756836	0.00915527	-0.0665283
-0.0756836	0.0134277	-0.0622559
-0.0753784	0.0177002	-0.0576782
-0.0747681	0.0213623	-0.0534058
-0.0735474	0.0247192	-0.0488281
-0.0720215	0.0274658	-0.0445557
-0.0695801	0.0296021	-0.039978
-0.0665283	0.0308228	-0.0357056
-0.0643921	0.032959	-0.0314331
-0.0628662	0.0357056	-0.0271606
-0.0610352	0.0384521	-0.022583
-0.0592041	0.0402832	-0.0189209
-0.057373	0.0408936	-0.0164795
-0.055542	0.0408936	-0.0146484
-0.0543213	0.0408936	-0.0134277
-0.0527954	0.039978	-0.0128174
-0.0497437	0.038147	-0.0115967
-0.0454712	0.03479	-0.0106812
-0.0402832	0.0311279	-0.00915527
-0.0350952	0.0268555	-0.00823975
-0.0311279	0.0234985	-0.00762939
-0.0283813	0.0210571	-0.00732422
-0.0262451	0.0192261	-0.00701904
-0.0244141	0.0183105	-0.00610352
-0.022583	0.0183105	-0.00427246
-0.0210571	0.0183105	-0.00274658
-0.0204468	0.0189209	-0.00152588
-0.020752	0.0195313	-0.0012207
-0.0213623	0.0192261	-0.00213623
-0.0210571	0.0170898	-0.00396729
-0.0204468	0.0137329	-0.00671387
-0.020752	0.00976563	-0.0109863
-0.022583	0.00518799	-0.017395
-0.0250244	0.000305176	-0.0247192
-0.0286865	-0.00457764	-0.0332642
-0.0335693	-0.00915527	-0.0427246
-0.0390625	-0.0128174	-0.0518799
-0.0460815	-0.0158691	-0.0619507
-0.0540161	-0.0177002	-0.0717163
-0.0619507	-0.0183105	-0.0802612
-0.0695801	-0.0186157	-0.0881958
-0.0759888	-0.0186157	-0.0946045
-0.0808716	-0.0189209	-0.0997925
-0.0857544	-0.0183105	-0.104065
-0.0912476	-0.0167847	-0.108032
-0.0952148	-0.0161743	-0.111389
-0.0967407	-0.017395	-0.114136
-0.0967407	-0.0198364	-0.116577
-0.0967407	-0.0213623	-0.118103
-0.0973511	-0.0219727	-0.119324
-0.0985718	-0.0222778	-0.12085
-0.098877	-0.0222778	-0.121155
-0.0982666	-0.0222778	-0.120544
-0.0967407	-0.022583	-0.119324
-0.0952148	-0.0231934	-0.118408
-0.093689	-0.0238037	-0.117493
-0.0930786	-0.0234985	-0.116577
-0.0933838	-0.0222778	-0.115662
-0.0939941	-0.0210571	-0.115051
-0.0949097	-0.020752	-0.115662
-0.0952148	-0.022583	-0.117798
-0.0949097	-0.027771	-0.122681
-0.0942993	-0.0354004	-0.1297
-0.0930786	-0.0442505	-0.137329
-0.0918579	-0.0515747	-0.143433
-0.0894165	-0.0570679	-0.146484
-0.0842285	-0.0619507	-0.146179
-0.0744629	-0.0668335	-0.141296
-0.0595093	-0.0704956	-0.130005
-0.0393677	-0.0698853	-0.109253
-0.0143433	-0.06073	-0.0750732
0.0140381	-0.0375366	-0.0234985
0.0448608	0.000305176	0.045166
0.0772095	0.050354	0.127563
0.110168	0.111389	0.221558
0.141602	0.181885	0.323486
0.166931	0.263672	0.430603
0.18158	0.357971	0.539551
0.183716	0.462952	0.646667
0.172424	0.571594	0.744019
0.147705	0.671997	0.819702
0.109253	0.751953	0.861206
0.0595093	0.802307	0.861816
0.00213623	0.817566	0.819702
-0.0601196	0.795288	0.735168
-0.12207	0.734863	0.612793
-0.178223	0.638733	0.46051
-0.223083	0.513	0.289917
-0.253601	0.367126	0.113525
-0.268555	0.212097	-0.0564575
-0.267944	0.0613403	-0.206604
-0.255127	-0.072937	-0.328064
-0.232239	-0.180664	-0.412903
-0.202942	-0.255432	-0.458374
-0.170898	-0.295105	-0.466003
-0.140686	-0.302429	-0.443115
-0.114746	-0.283203	-0.397949
-0.0952148	-0.245667	-0.340881
-0.0830078	-0.198669	-0.281677
-0.0772095	-0.150452	-0.227661
-0.0775146	-0.106812	-0.184326
-0.0820923	-0.0714111	-0.153503
-0.088501	-0.0463867	-0.134888
-0.0952148	-0.0302124	-0.125427
-0.100708	-0.0222778	-0.122986
-0.103149	-0.0213623	-0.124512
-0.103149	-0.0244141	-0.127563
-0.102234	-0.0292969	-0.131531
-0.101013	-0.0344849	-0.135498
-0.0997925	-0.0387573	-0.13855
-0.098877	-0.0408936	-0.139771
-0.0985718	-0.0415039	-0.140076
-0.0979614	-0.0411987	-0.13916
-0.0970459	-0.0408936	-0.137939
-0.0958252	-0.039978	-0.135803
-0.0952148	-0.038147	-0.133362
-0.0952148	-0.0357056	-0.13092
-0.0949097	-0.0341797	-0.129089
-0.093689	-0.0332642	-0.126953
-0.0921631	-0.0332642	-0.125427
-0.0912476	-0.0323486	-0.123596
-0.090332	-0.0320435	-0.122375
-0.0891113	-0.0326538	-0.121765
-0.0878906	-0.032959	-0.12085
-0.0866699	-0.0332642	-0.119934
-0.0860596	-0.0326538	-0.118713
-0.0857544	-0.0314331	-0.117188
-0.0854492	-0.0296021	-0.115051
-0.0836182	-0.0283813	-0.112
-0.0808716	-0.0274658	-0.108337
-0.0784302	-0.0271606	-0.105591
-0.0762939	-0.0265503	-0.102844
-0.0747681	-0.0259399	-0.100708
-0.0744629	-0.0259399	-0.100403
-0.0744629	-0.0262451	-0.100708
-0.0741577	-0.0262451	-0.100403
-0.0741577	-0.0268555	-0.101013
-0.0747681	-0.0268555	-0.101624
-0.0756836	-0.0271606	-0.102844
-0.0762939	-0.027771	-0.104065
-0.0759888	-0.0289917	-0.10498
-0.0759888	-0.0296021	-0.105591
-0.0750732	-0.0299072	-0.10498
-0.0726318	-0.0311279	-0.10376
-0.0695801	-0.0323486	-0.101929
-0.0662231	-0.032959	-0.0991821
-0.0631714	-0.0332642	-0.0964355
-0.0613403	-0.0323486	-0.093689
-0.06073	-0.0311279	-0.0918579
-0.0610352	-0.0292969	-0.090332
-0.0613403	-0.0271606	-0.088501
-0.0622559	-0.0247192	-0.0869751
-0.0640869	-0.0219727	-0.0860596
-0.0656128	-0.0192261	-0.0848389
-0.0668335	-0.0167847	-0.0836182
-0.0668335	-0.015564	-0.0823975
-0.0665283	-0.0149536	-0.0814819
-0.065918	-0.0149536	-0.0808716
-0.0650024	-0.0152588	-0.0802612
-0.0637817	-0.0149536	-0.0787354
-0.0610352	-0.0149536	-0.0759888
-0.0570679	-0.015564	-0.0726318
-0.0524902	-0.0164795	-0.0689697
-0.0485229	-0.017395	-0.065918
-0.0454712	-0.017395	-0.0628662
-0.0439453	-0.0170898	-0.0610352
-0.0424194	-0.0164795	-0.0588989
-0.039978	-0.0161743	-0.0561523
-0.0369263	-0.0161743	-0.0531006
-0.0344849	-0.0152588	-0.0497437
-0.032959	-0.0134277	-0.0463867
-0.0317383	-0.0115967	-0.043335
-0.0302124	-0.00976563	-0.039978
-0.0280762	-0.00793457	-0.0360107
-0.0259399	-0.00579834	-0.0317383
-0.0234985	-0.00305176	-0.0265503
-0.0204468	-0.000305176	-0.020752
-0.017395	0.00213623	-0.0152588
-0.0146484	0.00427246	-0.010376
-0.012207	0.00610352	-0.00610352
-0.010376	0.00793457	-0.00244141
-0.00762939	0.00976563	0.00213623
-0.00488281	0.0109863	0.00610352
-0.00213623	0.0115967	0.00946045
-0.000305176	0.0125122	0.012207
0.0012207	0.0140381	0.0152588
0.00335693	0.0158691	0.0192261
0.00488281	0.0177002	0.022583
0.00579834	0.0195313	0.0253296
0.00640869	0.0210571	0.0274658
0.00762939	0.022583	0.0302124
0.0088501	0.0238037	0.0326538
0.00915527	0.0256348	0.03479
0.00915527	0.0286865	0.0378418
0.00976563	0.0305176	0.0402832
0.0112915	0.0311279	0.0424194
0.0128174	0.0311279	0.0439453
0.0143433	0.0311279	0.0454712
0.0167847	0.0314331	0.0482178
0.0195313	0.0317383	0.0512695
0.0213623	0.0323486	0.0537109
0.022583	0.0323486	0.0549316
0.0231934	0.0320435	0.0552368
0.0234985	0.0314331	0.0549316
0.0219727	0.0314331	0.0534058
0.0192261	0.0317383	0.0509644
0.0161743	0.0317383	0.0479126
0.0131226	0.0314331	0.0445557
0.00946045	0.0305176	0.039978
0.00488281	0.0296021	0.0344849
0	0.0283813	0.0283813
-0.00427246	0.0268555	0.022583
-0.0088501	0.0244141	0.015564
-0.0128174	0.0216675	0.0088501
-0.0161743	0.0180054	0.00183105
-0.0198364	0.0149536	-0.00488281
-0.0234985	0.012207	-0.0112915
-0.0274658	0.0100708	-0.017395
-0.0317383	0.00793457	-0.0238037
-0.0360107	0.00671387	-0.0292969
-0.039978	0.00610352	-0.0338745
-0.0430298	0.00610352	-0.0369263
-0.0460815	0.00640869	-0.0396729
-0.0485229	0.00701904	-0.0415039
-0.0506592	0.00762939	-0.0430298
-0.0518799	0.00701904	-0.0448608
-0.0531006	0.00579834	-0.0473022
-0.0546265	0.00457764	-0.0500488
-0.0558472	0.00335693	-0.0524902
-0.0567627	0.00152588	-0.0552368
-0.057373	-0.000305176	-0.0576782
-0.0582886	-0.00213623	-0.0604248
-0.0588989	-0.00396729	-0.0628662
-0.0604248	-0.00518799	-0.0656128
-0.0622559	-0.00579834	-0.0680542
-0.0634766	-0.00640869	-0.0698853
-0.0640869	-0.00671387	-0.0708008
-0.0650024	-0.00640869	-0.0714111
-0.0662231	-0.00549316	-0.0717163
-0.0668335	-0.00549316	-0.0723267
-0.0671387	-0.00640869	-0.0735474
-0.0671387	-0.00732422	-0.0744629
-0.067749	-0.00762939	-0.0753784
-0.0689697	-0.00762939	-0.0765991
-0.0695801	-0.00762939	-0.0772095
-0.0692749	-0.00793457	-0.0772095
-0.0683594	-0.00854492	-0.0769043
-0.0674438	-0.00915527	-0.0765991
-0.065918	-0.00976563	-0.0756836
-0.0650024	-0.0100708	-0.0750732
-0.0650024	-0.0100708	-0.0750732
-0.0643921	-0.00946045	-0.0738525
-0.0637817	-0.00915527	-0.072937
-0.0628662	-0.00823975	-0.071106
-0.0628662	-0.00701904	-0.0698853
-0.0631714	-0.00518799	-0.0683594
-0.0631714	-0.00396729	-0.0671387
-0.0628662	-0.00305176	-0.065918
-0.0622559	-0.00213623	-0.0643921
-0.0613403	-0.0012207	-0.062561
-0.0604248	-0.000915527	-0.0613403
-0.0592041	-0.000915527	-0.0601196
-0.0588989	-0.000915527	-0.0598145
-0.0579834	-0.000915527	-0.0588989
-0.0570679	-0.000915527	-0.0579834
-0.055542	-0.000915527	-0.0564575
-0.0546265	-0.000305176	-0.0549316
-0.0537109	0	-0.0537109
-0.0527954	0.000610352	-0.0521851
-0.0518799	0.0012207	-0.0506592
-0.0506592	0.00183105	-0.0488281
-0.0494385	0.00244141	-0.0469971
-0.0479126	0.00213623	-0.0457764
-0.0454712	0.000610352	-0.0448608
-0.043335	-0.0012207	-0.0445557
-0.0424194	-0.00274658	-0.045166
-0.0418091	-0.00366211	-0.0454712
-0.0424194	-0.00396729	-0.0463867
-0.0436401	-0.00396729	-0.0476074
-0.0448608	-0.00396729	-0.0488281
-0.0457764	-0.00335693	-0.0491333
-0.0466919	-0.00274658	-0.0494385
-0.0473022	-0.00244141	-0.0497437
-0.0476074	-0.00183105	-0.0494385
-0.0476074	-0.00152588	-0.0491333
-0.0473022	-0.00152588	-0.0488281
-0.0463867	-0.00183105	-0.0482178
-0.0448608	-0.00274658	-0.0476074
-0.0436401	-0.00366211	-0.0473022
-0.043335	-0.00427246	-0.0476074
-0.0436401	-0.00488281	-0.0485229
-0.0448608	-0.00488281	-0.0497437
-0.0463867	-0.00488281	-0.0512695
-0.0488281	-0.00457764	-0.0534058
-0.0515747	-0.00366211	-0.0552368
-0.0540161	-0.00274658	-0.0567627
-0.0561523	-0.00213623	-0.0582886
-0.0570679	-0.00213623	-0.0592041
-0.0570679	-0.00274658	-0.0598145
-0.0567627	-0.00366211	-0.0604248
-0.0567627	-0.00427246	-0.0610352
-0.0564575	-0.00457764	-0.0610352
-0.0546265	-0.00549316	-0.0601196
-0.0521851	-0.00671387	-0.0588989
-0.050354	-0.00823975	-0.0585938
-0.0497437	-0.00915527	-0.0588989
-0.0497437	-0.0100708	-0.0598145
-0.0500488	-0.0106812	-0.06073
-0.050354	-0.0115967	-0.0619507
-0.0509644	-0.0128174	-0.0637817
-0.0521851	-0.0134277	-0.0656128
-0.0534058	-0.0143433	-0.067749
-0.0543213	-0.015564	-0.0698853
-0.0549316	-0.0164795	-0.0714111
-0.0558472	-0.0158691	-0.0717163
-0.0570679	-0.0146484	-0.0717163
-0.0582886	-0.0140381	-0.0723267
-0.0592041	-0.0140381	-0.0732422
-0.0588989	-0.0143433	-0.0732422
-0.0576782	-0.0149536	-0.0726318
-0.0561523	-0.0149536	-0.071106
-0.0549316	-0.0149536	-0.0698853
-0.0549316	-0.0143433	-0.0692749
-0.055542	-0.0140381	-0.0695801
-0.055542	-0.0146484	-0.0701904
-0.0552368	-0.015564	-0.0708008
-0.0552368	-0.0161743	-0.0714111
-0.0567627	-0.0158691	-0.0726318
-0.0582886	-0.0152588	-0.0735474
-0.0595093	-0.0149536	-0.0744629
-0.0604248	-0.0146484	-0.0750732
-0.0613403	-0.0137329	-0.0750732
-0.0622559	-0.0128174	-0.0750732
-0.0634766	-0.0112915	-0.0747681
-0.0643921	-0.00976563	-0.0741577
-0.0646973	-0.00762939	-0.0723267
-0.0653076	-0.00488281	-0.0701904
-0.0653076	-0.00213623	-0.0674438
-0.0646973	0.000610352	-0.0640869
-0.0637817	0.00366211	-0.0601196
-0.062561	0.00671387	-0.0558472
-0.0613403	0.0100708	-0.0512695
-0.0604248	0.0131226	-0.0473022
-0.0582886	0.0152588	-0.0430298
-0.0567627	0.0170898	-0.0396729
-0.0558472	0.0189209	-0.0369263
-0.0546265	0.0201416	-0.0344849
-0.0540161	0.0222778	-0.0317383
-0.0540161	0.0250244	-0.0289917
-0.0540161	0.027771	-0.0262451
-0.0540161	0.0302124	-0.0238037
-0.0534058	0.0320435	-0.0213623
-0.0509644	0.0323486	-0.0186157
-0.0476074	0.0323486	-0.0152588
-0.0439453	0.0326538	-0.0112915
-0.039978	0.032959	-0.00701904
-0.0357056	0.0320435	-0.00366211
-0.0305176	0.0292969	-0.0012207
-0.0241089	0.0259399	0.00183105
-0.0180054	0.022583	0.00457764
-0.0131226	0.0195313	0.00640869
-0.00946045	0.017395	0.00793457
-0.00610352	0.015564	0.00946045
-0.00335693	0.0140381	0.0106812
-0.0012207	0.0131226	0.0119019
-0.000915527	0.0131226	0.012207
-0.00213623	0.0134277	0.0112915
-0.00335693	0.0131226	0.00976563
-0.00427246	0.0115967	0.00732422
-0.00518799	0.00915527	0.00396729
-0.00701904	0.00701904	0
-0.00976563	0.00396729	-0.00579834
-0.0128174	0.000305176	-0.0125122
-0.0158691	-0.00335693	-0.0192261
-0.0189209	-0.00854492	-0.0274658
-0.0213623	-0.0140381	-0.0354004
-0.0244141	-0.0189209	-0.043335
-0.0292969	-0.0228882	-0.0521851
-0.0354004	-0.0259399	-0.0613403
-0.0415039	-0.0286865	-0.0701904
-0.0476074	-0.0311279	-0.0787354
-0.0543213	-0.0326538	-0.0869751
-0.0616455	-0.0326538	-0.0942993
-0.0689697	-0.0317383	-0.100708
-0.0747681	-0.0308228	-0.105591
-0.0784302	-0.0302124	-0.108643
-0.0805664	-0.0292969	-0.109863
-0.0817871	-0.0283813	-0.110168
-0.083313	-0.0265503	-0.109863
-0.0839233	-0.0247192	-0.108643
-0.083313	-0.0238037	-0.107117
-0.0814819	-0.0238037	-0.105286
-0.0790405	-0.0247192	-0.10376
-0.0765991	-0.0262451	-0.102844
-0.0744629	-0.027771	-0.102234
-0.072937	-0.0292969	-0.102234
-0.0720215	-0.0305176	-0.102539
-0.0720215	-0.0317383	-0.10376
-0.0732422	-0.0323486	-0.105591
-0.0747681	-0.0335693	-0.108337
-0.0765991	-0.0360107	-0.11261
-0.0775146	-0.0408936	-0.118408
-0.0778198	-0.0482178	-0.126038
-0.0784302	-0.0558472	-0.134277
