-0.017395	-0.0302124	-0.0476074
-0.0164795	-0.0289917	-0.0454712
-0.0152588	-0.0283813	-0.0436401
-0.0134277	-0.027771	-0.0411987
-0.0119019	-0.0271606	-0.0390625
-0.0106812	-0.0256348	-0.0363159
-0.00976563	-0.0238037	-0.0335693
-0.00915527	-0.0216675	-0.0308228
-0.00854492	-0.0201416	-0.0286865
-0.00762939	-0.0195313	-0.0271606
-0.00640869	-0.0195313	-0.0259399
-0.00579834	-0.0198364	-0.0256348
-0.00518799	-0.0201416	-0.0253296
-0.00518799	-0.020752	-0.0259399
-0.00549316	-0.0210571	-0.0265503
-0.00579834	-0.0210571	-0.0268555
-0.00610352	-0.0216675	-0.027771
-0.00610352	-0.0216675	-0.027771
-0.00640869	-0.0213623	-0.027771
-0.00610352	-0.0213623	-0.0274658
-0.00579834	-0.0213623	-0.0271606
-0.00579834	-0.020752	-0.0265503
-0.00549316	-0.020752	-0.0262451
-0.00457764	-0.0213623	-0.0259399
-0.00305176	-0.0222778	-0.0253296
-0.00213623	-0.0228882	-0.0250244
-0.00213623	-0.0228882	-0.0250244
-0.00274658	-0.0222778	-0.0250244
-0.00274658	-0.022583	-0.0253296
-0.00244141	-0.0234985	-0.0259399
-0.00274658	-0.0238037	-0.0265503
-0.00366211	-0.0238037	-0.0274658
-0.00396729	-0.0238037	-0.027771
-0.00305176	-0.0241089	-0.0271606
-0.00213623	-0.0250244	-0.0271606
-0.00213623	-0.0253296	-0.0274658
-0.00305176	-0.0259399	-0.0289917
-0.00396729	-0.0262451	-0.0302124
-0.00427246	-0.0262451	-0.0305176
-0.00518799	-0.0262451	-0.0314331
-0.00671387	-0.0256348	-0.0323486
-0.00915527	-0.0247192	-0.0338745
-0.0115967	-0.0238037	-0.0354004
-0.0134277	-0.0234985	-0.0369263
-0.0152588	-0.0231934	-0.0384521
-0.0164795	-0.0231934	-0.0396729
-0.017395	-0.0234985	-0.0408936
-0.017395	-0.0244141	-0.0418091
-0.0170898	-0.0256348	-0.0427246
-0.0164795	-0.0271606	-0.0436401
-0.015564	-0.0283813	-0.0439453
-0.0146484	-0.0299072	-0.0445557
-0.0131226	-0.0317383	-0.0448608
-0.0128174	-0.0320435	-0.0448608
-0.0131226	-0.0320435	-0.045166
-0.0128174	-0.0323486	-0.045166
-0.012207	-0.032959	-0.045166
-0.0119019	-0.0332642	-0.045166
-0.0115967	-0.0335693	-0.045166
-0.0106812	-0.0344849	-0.045166
-0.0100708	-0.0354004	-0.0454712
-0.00946045	-0.0366211	-0.0460815
-0.0088501	-0.0375366	-0.0463867
-0.00762939	-0.0387573	-0.0463867
-0.00579834	-0.0402832	-0.0460815
-0.00457764	-0.0408936	-0.0454712
-0.00366211	-0.0411987	-0.0448608
-0.00274658	-0.0411987	-0.0439453
-0.00152588	-0.0408936	-0.0424194
-0.000915527	-0.039978	-0.0408936
-0.0012207	-0.038147	-0.0393677
-0.00183105	-0.0360107	-0.0378418
-0.00244141	-0.0332642	-0.0357056
-0.00366211	-0.0296021	-0.0332642
-0.00549316	-0.0253296	-0.0308228
-0.00762939	-0.020752	-0.0283813
-0.00946045	-0.0161743	-0.0256348
-0.0109863	-0.0115967	-0.022583
-0.0128174	-0.00701904	-0.0198364
-0.0140381	-0.00213623	-0.0161743
-0.0140381	0.00213623	-0.0119019
-0.0119019	0.00518799	-0.00671387
-0.00854492	0.00732422	-0.0012207
-0.00488281	0.00915527	0.00427246
-0.00152588	0.0106812	0.00915527
0.00183105	0.0119019	0.0137329
0.00549316	0.0119019	0.017395
0.00976563	0.0106812	0.0204468
0.0137329	0.0088501	0.022583
0.0167847	0.00701904	0.0238037
0.0189209	0.00549316	0.0244141
0.0210571	0.00366211	0.0247192
0.0231934	0.00183105	0.0250244
0.0253296	0.000305176	0.0256348
0.027771	-0.000915527	0.0268555
0.0302124	-0.00152588	0.0286865
0.0332642	-0.00152588	0.0317383
0.0360107	-0.0012207	0.03479
0.0390625	-0.000915527	0.038147
0.0421143	-0.000610352	0.0415039
0.0436401	-0.000610352	0.0430298
0.0442505	-0.0012207	0.0430298
0.0430298	-0.00183105	0.0411987
0.0411987	-0.00305176	0.038147
0.0384521	-0.00549316	0.032959
0.0354004	-0.0088501	0.0265503
0.0317383	-0.0131226	0.0186157
0.0280762	-0.0177002	0.010376
0.0241089	-0.0222778	0.00183105
0.0204468	-0.0268555	-0.00640869
0.0170898	-0.0317383	-0.0146484
0.0137329	-0.0360107	-0.0222778
0.0100708	-0.0393677	-0.0292969
0.00610352	-0.0421143	-0.0360107
0.000915527	-0.0439453	-0.0430298
-0.00457764	-0.045166	-0.0497437
-0.0106812	-0.0454712	-0.0561523
-0.0177002	-0.0448608	-0.062561
-0.0244141	-0.043335	-0.067749
-0.0302124	-0.0421143	-0.0723267
-0.03479	-0.0415039	-0.0762939
-0.038147	-0.0415039	-0.0796509
-0.0396729	-0.0421143	-0.0817871
-0.0396729	-0.043335	-0.0830078
-0.038147	-0.045166	-0.083313
-0.0354004	-0.0473022	-0.0827026
-0.0323486	-0.0491333	-0.0814819
-0.0299072	-0.0509644	-0.0808716
-0.027771	-0.0521851	-0.0799561
-0.0265503	-0.0527954	-0.0793457
-0.0262451	-0.0524902	-0.0787354
-0.0265503	-0.0515747	-0.078125
-0.0274658	-0.0506592	-0.078125
-0.0286865	-0.0500488	-0.0787354
-0.0302124	-0.0506592	-0.0808716
-0.0317383	-0.0534058	-0.085144
-0.0323486	-0.0588989	-0.0912476
-0.0320435	-0.0665283	-0.0985718
-0.0305176	-0.0738525	-0.10437
-0.0271606	-0.0802612	-0.107422
-0.0210571	-0.085144	-0.106201
-0.0125122	-0.088501	-0.101013
-0.000305176	-0.0894165	-0.0897217
0.0167847	-0.0857544	-0.0689697
0.0402832	-0.072937	-0.0326538
0.0686646	-0.0476074	0.0210571
0.100098	-0.00793457	0.0921631
0.132446	0.0457764	0.178223
0.16449	0.110779	0.275269
0.194092	0.185852	0.379944
0.217285	0.272217	0.489502
0.230408	0.370483	0.600891
0.230713	0.477905	0.708618
0.21637	0.588074	0.804443
0.186768	0.688477	0.875244
0.142212	0.767517	0.909729
0.0869751	0.814514	0.901489
0.0259399	0.823975	0.849915
-0.0378418	0.794983	0.757141
-0.0994873	0.72876	0.629272
-0.154114	0.628662	0.474548
-0.195618	0.500183	0.304565
-0.221252	0.352478	0.131226
-0.231018	0.196838	-0.0341797
-0.226135	0.0469971	-0.179138
-0.209045	-0.085144	-0.294189
-0.18219	-0.190735	-0.372925
-0.149841	-0.263367	-0.413208
-0.116577	-0.302429	-0.419006
-0.0860596	-0.310364	-0.396423
-0.0604248	-0.293884	-0.354309
-0.0424194	-0.260315	-0.302734
-0.0317383	-0.217896	-0.249634
-0.027771	-0.174255	-0.202026
-0.0280762	-0.134277	-0.162354
-0.0317383	-0.101624	-0.133362
-0.0372314	-0.0772095	-0.114441
-0.0430298	-0.0610352	-0.104065
-0.0476074	-0.0518799	-0.0994873
-0.050354	-0.0479126	-0.0982666
-0.0509644	-0.0479126	-0.098877
-0.0506592	-0.050354	-0.101013
-0.0488281	-0.0540161	-0.102844
-0.0466919	-0.0576782	-0.10437
-0.0439453	-0.06073	-0.104675
-0.0411987	-0.0634766	-0.104675
-0.0393677	-0.0650024	-0.10437
-0.0387573	-0.0650024	-0.10376
-0.0387573	-0.0637817	-0.102539
-0.038147	-0.0628662	-0.101013
-0.0366211	-0.0619507	-0.0985718
-0.03479	-0.0616455	-0.0964355
-0.0335693	-0.06073	-0.0942993
-0.032959	-0.0595093	-0.0924683
-0.032959	-0.0585938	-0.0915527
-0.032959	-0.0579834	-0.0909424
-0.032959	-0.0570679	-0.0900269
-0.0326538	-0.0564575	-0.0891113
-0.0326538	-0.0561523	-0.0888062
-0.032959	-0.0552368	-0.0881958
-0.0341797	-0.0534058	-0.0875854
-0.0366211	-0.0515747	-0.0881958
-0.0384521	-0.0497437	-0.0881958
-0.0390625	-0.0488281	-0.0878906
-0.0390625	-0.0485229	-0.0875854
-0.0387573	-0.0479126	-0.0866699
-0.0384521	-0.0473022	-0.0857544
-0.0375366	-0.0466919	-0.0842285
-0.0360107	-0.0469971	-0.0830078
-0.0341797	-0.0473022	-0.0814819
-0.0323486	-0.0479126	-0.0802612
-0.0302124	-0.0482178	-0.0784302
-0.0280762	-0.0485229	-0.0765991
-0.0265503	-0.0485229	-0.0750732
-0.0244141	-0.0485229	-0.072937
-0.0228882	-0.0485229	-0.0714111
-0.0216675	-0.0482178	-0.0698853
-0.0210571	-0.0479126	-0.0689697
-0.0204468	-0.0476074	-0.0680542
-0.0192261	-0.0479126	-0.0671387
-0.0180054	-0.0479126	-0.065918
-0.0167847	-0.0476074	-0.0643921
-0.0161743	-0.0469971	-0.0631714
-0.0158691	-0.0460815	-0.0619507
-0.0149536	-0.0454712	-0.0604248
-0.0137329	-0.0448608	-0.0585938
-0.0128174	-0.0442505	-0.0570679
-0.0115967	-0.043335	-0.0549316
-0.010376	-0.0421143	-0.0524902
-0.0100708	-0.0402832	-0.050354
-0.00915527	-0.0387573	-0.0479126
-0.00823975	-0.0378418	-0.0460815
-0.00701904	-0.0366211	-0.0436401
-0.00610352	-0.0350952	-0.0411987
-0.00427246	-0.0338745	-0.038147
-0.00183105	-0.0332642	-0.0350952
0.000915527	-0.0326538	-0.0317383
0.00305176	-0.0320435	-0.0289917
0.00488281	-0.0314331	-0.0265503
0.00701904	-0.0302124	-0.0231934
0.00854492	-0.0286865	-0.0201416
0.0106812	-0.0271606	-0.0164795
0.0128174	-0.0250244	-0.012207
0.0140381	-0.0222778	-0.00823975
0.0149536	-0.0192261	-0.00427246
0.0158691	-0.0167847	-0.000915527
0.0177002	-0.0143433	0.00335693
0.0213623	-0.0131226	0.00823975
0.0253296	-0.0125122	0.0128174
0.0292969	-0.0119019	0.017395
0.0335693	-0.012207	0.0213623
0.0378418	-0.0131226	0.0247192
0.0424194	-0.0137329	0.0286865
0.0463867	-0.0140381	0.0323486
0.050354	-0.0143433	0.0360107
0.0537109	-0.0140381	0.0396729
0.0564575	-0.0131226	0.043335
0.0582886	-0.0112915	0.0469971
0.0595093	-0.0088501	0.0506592
0.0610352	-0.00610352	0.0549316
0.0628662	-0.00366211	0.0592041
0.0646973	-0.000915527	0.0637817
0.0665283	0.0012207	0.067749
0.0686646	0.00335693	0.0720215
0.0708008	0.00549316	0.0762939
0.072937	0.00793457	0.0808716
0.0744629	0.0109863	0.0854492
0.0756836	0.0140381	0.0897217
0.0775146	0.0161743	0.093689
0.0796509	0.017395	0.0970459
0.0814819	0.0180054	0.0994873
0.0823975	0.0189209	0.101318
0.0827026	0.0198364	0.102539
0.0827026	0.0201416	0.102844
0.0823975	0.0195313	0.101929
0.0811768	0.0186157	0.0997925
0.0796509	0.017395	0.0970459
0.0778198	0.015564	0.0933838
0.0750732	0.0143433	0.0894165
0.071106	0.0137329	0.0848389
0.0665283	0.0134277	0.0799561
0.0610352	0.0134277	0.0744629
0.055542	0.0131226	0.0686646
0.0500488	0.012207	0.0622559
0.0442505	0.0115967	0.0558472
0.0378418	0.0106812	0.0485229
0.0314331	0.00915527	0.0405884
0.0259399	0.00701904	0.032959
0.0210571	0.00366211	0.0247192
0.0164795	0	0.0164795
0.012207	-0.00366211	0.00854492
0.00823975	-0.00732422	0.000915527
0.00488281	-0.0109863	-0.00610352
0.00244141	-0.0140381	-0.0115967
-0.000305176	-0.0164795	-0.0167847
-0.00335693	-0.0183105	-0.0216675
-0.00610352	-0.0198364	-0.0259399
-0.00915527	-0.0210571	-0.0302124
-0.0119019	-0.0219727	-0.0338745
-0.0140381	-0.0219727	-0.0360107
-0.0164795	-0.0222778	-0.0387573
-0.0189209	-0.0228882	-0.0418091
-0.020752	-0.0238037	-0.0445557
-0.0222778	-0.0250244	-0.0473022
-0.0228882	-0.0259399	-0.0488281
-0.0228882	-0.0274658	-0.050354
-0.022583	-0.0286865	-0.0512695
-0.0231934	-0.0289917	-0.0521851
-0.0247192	-0.0289917	-0.0537109
-0.0259399	-0.0289917	-0.0549316
-0.0268555	-0.0289917	-0.0558472
-0.0280762	-0.0283813	-0.0564575
-0.0296021	-0.027771	-0.057373
-0.0308228	-0.0268555	-0.0576782
-0.0323486	-0.0259399	-0.0582886
-0.0335693	-0.0250244	-0.0585938
-0.0350952	-0.0238037	-0.0588989
-0.0357056	-0.0231934	-0.0588989
-0.0360107	-0.0228882	-0.0588989
-0.0357056	-0.0228882	-0.0585938
-0.03479	-0.0238037	-0.0585938
-0.032959	-0.0250244	-0.0579834
-0.0311279	-0.0262451	-0.057373
-0.0289917	-0.0271606	-0.0561523
-0.027771	-0.027771	-0.055542
-0.0265503	-0.0283813	-0.0549316
-0.0253296	-0.0289917	-0.0543213
-0.0238037	-0.0296021	-0.0534058
-0.0219727	-0.0296021	-0.0515747
-0.020752	-0.0289917	-0.0497437
-0.0201416	-0.027771	-0.0479126
-0.0204468	-0.0265503	-0.0469971
-0.0210571	-0.0250244	-0.0460815
-0.0213623	-0.0238037	-0.045166
-0.0216675	-0.0228882	-0.0445557
-0.0210571	-0.022583	-0.0436401
-0.020752	-0.0222778	-0.0430298
-0.020752	-0.0219727	-0.0427246
-0.0204468	-0.0219727	-0.0424194
-0.0201416	-0.0216675	-0.0418091
-0.0195313	-0.0210571	-0.0405884
-0.0189209	-0.020752	-0.0396729
-0.0177002	-0.0201416	-0.0378418
-0.0164795	-0.0198364	-0.0363159
-0.0149536	-0.0198364	-0.03479
-0.0134277	-0.0198364	-0.0332642
-0.0125122	-0.0195313	-0.0320435
-0.0109863	-0.0198364	-0.0308228
-0.00915527	-0.0210571	-0.0302124
-0.00762939	-0.0222778	-0.0299072
-0.00701904	-0.0228882	-0.0299072
-0.00732422	-0.0234985	-0.0308228
-0.00762939	-0.0238037	-0.0314331
-0.00854492	-0.0241089	-0.0326538
-0.00976563	-0.0238037	-0.0335693
-0.0112915	-0.0231934	-0.0344849
-0.0125122	-0.022583	-0.0350952
-0.0134277	-0.0219727	-0.0354004
-0.0146484	-0.0210571	-0.0357056
-0.0152588	-0.0201416	-0.0354004
-0.015564	-0.0192261	-0.03479
-0.0152588	-0.0186157	-0.0338745
-0.0149536	-0.0183105	-0.0332642
-0.0149536	-0.0183105	-0.0332642
-0.0146484	-0.0183105	-0.032959
-0.0146484	-0.0189209	-0.0335693
-0.0143433	-0.0189209	-0.0332642
-0.0146484	-0.0186157	-0.0332642
-0.0149536	-0.0186157	-0.0335693
-0.0143433	-0.0192261	-0.0335693
-0.0134277	-0.0204468	-0.0338745
-0.012207	-0.0219727	-0.0341797
-0.0115967	-0.0231934	-0.03479
-0.0119019	-0.0241089	-0.0360107
-0.012207	-0.0253296	-0.0375366
-0.012207	-0.0265503	-0.0387573
-0.0128174	-0.0280762	-0.0408936
-0.0137329	-0.0289917	-0.0427246
-0.0152588	-0.0296021	-0.0448608
-0.0170898	-0.0299072	-0.0469971
-0.0192261	-0.0299072	-0.0491333
-0.0210571	-0.0292969	-0.050354
-0.0219727	-0.0286865	-0.0506592
-0.0210571	-0.0296021	-0.0506592
-0.0192261	-0.0308228	-0.0500488
-0.017395	-0.0317383	-0.0491333
-0.0161743	-0.0323486	-0.0485229
-0.0149536	-0.0326538	-0.0476074
-0.0134277	-0.0332642	-0.0466919
-0.0119019	-0.0341797	-0.0460815
-0.0106812	-0.0350952	-0.0457764
-0.010376	-0.0360107	-0.0463867
-0.0109863	-0.0360107	-0.0469971
-0.012207	-0.0354004	-0.0476074
-0.0140381	-0.0344849	-0.0485229
-0.0158691	-0.032959	-0.0488281
-0.0180054	-0.0314331	-0.0494385
-0.0201416	-0.0296021	-0.0497437
-0.0222778	-0.027771	-0.0500488
-0.0244141	-0.0259399	-0.050354
-0.0265503	-0.0244141	-0.0509644
-0.0283813	-0.0228882	-0.0512695
-0.0286865	-0.022583	-0.0512695
-0.027771	-0.0231934	-0.0509644
-0.0268555	-0.0238037	-0.0506592
-0.0259399	-0.0247192	-0.0506592
-0.0250244	-0.0259399	-0.0509644
-0.0231934	-0.0274658	-0.0506592
-0.0213623	-0.0283813	-0.0497437
-0.0198364	-0.0283813	-0.0482178
-0.0183105	-0.0283813	-0.0466919
-0.017395	-0.0274658	-0.0448608
-0.0170898	-0.0253296	-0.0424194
-0.0177002	-0.0219727	-0.0396729
-0.0189209	-0.017395	-0.0363159
-0.0201416	-0.0125122	-0.0326538
-0.0210571	-0.00823975	-0.0292969
-0.0213623	-0.00396729	-0.0253296
-0.0219727	-0.000305176	-0.0222778
-0.0216675	0.00274658	-0.0189209
-0.0210571	0.00549316	-0.015564
-0.0201416	0.00823975	-0.0119019
-0.0195313	0.0109863	-0.00854492
-0.0183105	0.0134277	-0.00488281
-0.0170898	0.015564	-0.00152588
-0.015564	0.0164795	0.000915527
-0.0134277	0.0161743	0.00274658
-0.0106812	0.0152588	0.00457764
-0.00793457	0.0140381	0.00610352
-0.00488281	0.0128174	0.00793457
-0.000915527	0.0106812	0.00976563
0.00366211	0.00762939	0.0112915
0.0088501	0.00488281	0.0137329
0.0143433	0.00213623	0.0164795
0.0198364	0.000305176	0.0201416
0.0244141	-0.000610352	0.0238037
0.0286865	-0.000610352	0.0280762
0.0323486	-0.000610352	0.0317383
0.0354004	0	0.0354004
0.0375366	0.000610352	0.038147
0.0384521	0.000305176	0.0387573
0.0390625	-0.000915527	0.038147
0.0390625	-0.00335693	0.0357056
0.0384521	-0.00701904	0.0314331
0.0375366	-0.0119019	0.0256348
0.0360107	-0.0177002	0.0183105
0.0338745	-0.0238037	0.0100708
0.0302124	-0.0292969	0.000915527
0.0253296	-0.0341797	-0.0088501
0.0195313	-0.0384521	-0.0189209
0.0131226	-0.0418091	-0.0286865
0.00610352	-0.0439453	-0.0378418
-0.00183105	-0.0448608	-0.0466919
-0.0100708	-0.045166	-0.0552368
-0.0186157	-0.0442505	-0.0628662
-0.0265503	-0.0427246	-0.0692749
-0.0335693	-0.0411987	-0.0747681
-0.0393677	-0.0402832	-0.0796509
-0.043335	-0.039978	-0.083313
-0.0469971	-0.0393677	-0.0863647
-0.0500488	-0.0384521	-0.088501
-0.0518799	-0.0387573	-0.0906372
-0.0524902	-0.0396729	-0.0921631
-0.0521851	-0.0411987	-0.0933838
-0.0518799	-0.0424194	-0.0942993
-0.0509644	-0.0436401	-0.0946045
-0.0494385	-0.0454712	-0.0949097
-0.0479126	-0.0469971	-0.0949097
-0.0460815	-0.0488281	-0.0949097
-0.0439453	-0.050354	-0.0942993
-0.0427246	-0.0509644	-0.093689
-0.0430298	-0.0497437	-0.0927734
-0.0439453	-0.0488281	-0.0927734
-0.0439453	-0.0506592	-0.0946045
-0.0436401	-0.0552368	-0.098877
-0.0427246	-0.0622559	-0.10498
-0.0418091	-0.0701904	-0.112
-0.039978	-0.0772095	-0.117188
-0.0360107	-0.083313	-0.119324
-0.0286865	-0.0891113	-0.117798
-0.0180054	-0.0939941	-0.112
-0.00244141	-0.0967407	-0.0991821
0.0186157	-0.0942993	-0.0756836
0.0454712	-0.0820923	-0.0366211
0.0762939	-0.0558472	0.0204468
0.108643	-0.0137329	0.0949097
0.140991	0.0421143	0.183105
0.172729	0.108337	0.281067
0.202637	0.184021	0.386658
0.22583	0.271301	0.497131
0.238953	0.371094	0.610046
0.239258	0.479736	0.718994
0.22522	0.588989	0.814209
0.195313	0.686035	0.881348
0.151978	0.758362	0.910339
0.098877	0.797424	0.896301
0.0393677	0.79895	0.838318
-0.0244141	0.762329	0.737915
-0.0875854	0.688171	0.600586
-0.144653	0.581055	0.436401
-0.189209	0.446472	0.257263
-0.217896	0.2948	0.0769043
-0.230408	0.13916	-0.0912476
-0.228577	-0.00732422	-0.235901
-0.213928	-0.133057	-0.346985
-0.189819	-0.229187	-0.419006
-0.159302	-0.291443	-0.450745
-0.126038	-0.319824	-0.445862
-0.0949097	-0.317078	-0.411987
-0.0689697	-0.289917	-0.358887
-0.0500488	-0.247803	-0.297852
-0.038147	-0.200195	-0.238342
-0.0332642	-0.153503	-0.186768
-0.0338745	-0.11322	-0.147095
-0.0387573	-0.0817871	-0.120544
-0.0454712	-0.0601196	-0.105591
-0.0515747	-0.0473022	-0.098877
-0.0558472	-0.0418091	-0.0976563
-0.0576782	-0.0418091	-0.0994873
-0.0579834	-0.0457764	-0.10376
-0.0564575	-0.0515747	-0.108032
-0.0540161	-0.0576782	-0.111694
-0.0518799	-0.0622559	-0.114136
-0.050354	-0.0656128	-0.115967
-0.0485229	-0.0674438	-0.115967
-0.0469971	-0.0686646	-0.115662
-0.0457764	-0.0686646	-0.114441
-0.0448608	-0.0674438	-0.112305
-0.0448608	-0.0653076	-0.110168
-0.0445557	-0.0628662	-0.107422
-0.0445557	-0.0601196	-0.104675
-0.0445557	-0.057373	-0.101929
-0.0442505	-0.0549316	-0.0991821
-0.0436401	-0.0524902	-0.0961304
-0.0427246	-0.0509644	-0.093689
-0.0418091	-0.0500488	-0.0918579
-0.0421143	-0.0491333	-0.0912476
-0.0427246	-0.0485229	-0.0912476
-0.0436401	-0.0485229	-0.0921631
-0.0445557	-0.0488281	-0.0933838
-0.045166	-0.0485229	-0.093689
-0.0457764	-0.0479126	-0.093689
-0.0454712	-0.0476074	-0.0930786
-0.0448608	-0.0473022	-0.0921631
-0.0439453	-0.0466919	-0.0906372
-0.0430298	-0.0460815	-0.0891113
-0.0418091	-0.0448608	-0.0866699
-0.0408936	-0.043335	-0.0842285
-0.0396729	-0.0421143	-0.0817871
-0.0378418	-0.0411987	-0.0790405
-0.0360107	-0.0405884	-0.0765991
-0.03479	-0.0402832	-0.0750732
-0.0335693	-0.039978	-0.0735474
-0.0326538	-0.0405884	-0.0732422
-0.0317383	-0.0408936	-0.0726318
-0.0305176	-0.0411987	-0.0717163
-0.0292969	-0.0415039	-0.0708008
-0.0283813	-0.0415039	-0.0698853
-0.0283813	-0.0408936	-0.0692749
-0.0286865	-0.039978	-0.0686646
-0.0286865	-0.0396729	-0.0683594
-0.0280762	-0.0393677	-0.0674438
-0.027771	-0.0387573	-0.0665283
-0.027771	-0.0378418	-0.0656128
-0.0274658	-0.0369263	-0.0643921
-0.0259399	-0.0366211	-0.062561
-0.0234985	-0.0366211	-0.0601196
-0.0210571	-0.0366211	-0.0576782
-0.0186157	-0.0366211	-0.0552368
-0.0161743	-0.0363159	-0.0524902
-0.0134277	-0.0360107	-0.0494385
-0.0106812	-0.0357056	-0.0463867
-0.00854492	-0.0357056	-0.0442505
-0.00671387	-0.0357056	-0.0424194
-0.00488281	-0.0357056	-0.0405884
-0.00335693	-0.0354004	-0.0387573
-0.00244141	-0.03479	-0.0372314
-0.000915527	-0.0338745	-0.03479
0.000305176	-0.0326538	-0.0323486
0.00213623	-0.0314331	-0.0292969
0.00427246	-0.0299072	-0.0256348
0.00671387	-0.0280762	-0.0213623
0.00946045	-0.0259399	-0.0164795
0.012207	-0.0238037	-0.0115967
0.0149536	-0.020752	-0.00579834
0.0170898	-0.0170898	0
0.0189209	-0.0134277	0.00549316
0.0204468	-0.0100708	0.010376
0.022583	-0.00732422	0.0152588
0.0250244	-0.00518799	0.0198364
0.0274658	-0.00305176	0.0244141
0.0296021	-0.000305176	0.0292969
0.0308228	0.00274658	0.0335693
0.0317383	0.00579834	0.0375366
0.0338745	0.00823975	0.0421143
0.0366211	0.00976563	0.0463867
0.0396729	0.0112915	0.0509644
0.0424194	0.0125122	0.0549316
0.045166	0.0134277	0.0585938
0.0473022	0.0146484	0.0619507
0.0491333	0.0161743	0.0653076
0.0512695	0.0177002	0.0689697
0.0534058	0.0192261	0.0726318
0.0552368	0.020752	0.0759888
0.0567627	0.022583	0.0793457
0.0585938	0.0241089	0.0827026
0.0610352	0.0250244	0.0860596
0.0634766	0.0262451	0.0897217
0.0656128	0.027771	0.0933838
0.067749	0.0289917	0.0967407
0.0698853	0.0302124	0.100098
0.0720215	0.0302124	0.102234
0.0738525	0.0296021	0.103455
0.0750732	0.0289917	0.104065
0.0756836	0.0280762	0.10376
0.0747681	0.027771	0.102539
0.0726318	0.0274658	0.100098
0.0692749	0.0271606	0.0964355
0.0643921	0.0268555	0.0912476
0.0582886	0.0265503	0.0848389
0.0521851	0.0256348	0.0778198
0.0457764	0.0244141	0.0701904
0.0396729	0.022583	0.0622559
0.0338745	0.0201416	0.0540161
0.0283813	0.0177002	0.0460815
0.0234985	0.0143433	0.0378418
0.0186157	0.0109863	0.0296021
0.0137329	0.00762939	0.0213623
0.0100708	0.00396729	0.0140381
0.00701904	0	0.00701904
0.00427246	-0.00366211	0.000610352
0.0012207	-0.00640869	-0.00518799
-0.00274658	-0.00823975	-0.0109863
-0.00701904	-0.00976563	-0.0167847
-0.0112915	-0.0109863	-0.0222778
-0.015564	-0.0119019	-0.0274658
-0.0198364	-0.0125122	-0.0323486
-0.0238037	-0.0131226	-0.0369263
-0.0271606	-0.0134277	-0.0405884
-0.0292969	-0.0146484	-0.0439453
-0.0308228	-0.0164795	-0.0473022
-0.032959	-0.0177002	-0.0506592
-0.03479	-0.0186157	-0.0534058
-0.0357056	-0.0198364	-0.055542
-0.0354004	-0.0213623	-0.0567627
-0.0350952	-0.0228882	-0.0579834
-0.0350952	-0.0241089	-0.0592041
-0.0354004	-0.0247192	-0.0601196
-0.0360107	-0.0250244	-0.0610352
-0.0369263	-0.0250244	-0.0619507
-0.0375366	-0.0247192	-0.0622559
-0.038147	-0.0244141	-0.062561
-0.0387573	-0.0241089	-0.0628662
-0.0390625	-0.0234985	-0.062561
-0.0387573	-0.0228882	-0.0616455
-0.0384521	-0.0228882	-0.0613403
-0.038147	-0.0228882	-0.0610352
-0.0375366	-0.0228882	-0.0604248
-0.0366211	-0.0228882	-0.0595093
-0.0360107	-0.022583	-0.0585938
-0.0357056	-0.0216675	-0.057373
-0.0350952	-0.0210571	-0.0561523
-0.0335693	-0.020752	-0.0543213
-0.0320435	-0.020752	-0.0527954
-0.0308228	-0.020752	-0.0515747
-0.0299072	-0.0204468	-0.050354
-0.0286865	-0.0195313	-0.0482178
-0.0268555	-0.0195313	-0.0463867
-0.0241089	-0.0198364	-0.0439453
-0.0213623	-0.0198364	-0.0411987
-0.0195313	-0.0198364	-0.0393677
-0.0180054	-0.0198364	-0.0378418
-0.0170898	-0.0192261	-0.0363159
-0.0167847	-0.0183105	-0.0350952
-0.0161743	-0.017395	-0.0335693
-0.0161743	-0.0167847	-0.032959
-0.0161743	-0.0161743	-0.0323486
-0.0158691	-0.015564	-0.0314331
-0.015564	-0.0149536	-0.0305176
-0.0158691	-0.0146484	-0.0305176
-0.0170898	-0.0134277	-0.0305176
-0.0195313	-0.0115967	-0.0311279
-0.0219727	-0.00976563	-0.0317383
-0.0228882	-0.00915527	-0.0320435
-0.0231934	-0.00915527	-0.0323486
-0.0231934	-0.0088501	-0.0320435
-0.0241089	-0.00762939	-0.0317383
-0.0253296	-0.00640869	-0.0317383
-0.0256348	-0.00610352	-0.0317383
-0.0244141	-0.00640869	-0.0308228
-0.0222778	-0.00732422	-0.0296021
-0.0201416	-0.00823975	-0.0283813
-0.017395	-0.00946045	-0.0268555
-0.0146484	-0.010376	-0.0250244
-0.0128174	-0.0109863	-0.0238037
-0.012207	-0.0109863	-0.0231934
-0.0128174	-0.0109863	-0.0238037
-0.0134277	-0.0112915	-0.0247192
-0.0140381	-0.0115967	-0.0256348
-0.0149536	-0.0115967	-0.0265503
-0.0158691	-0.0115967	-0.0274658
-0.0161743	-0.0115967	-0.027771
-0.0164795	-0.0119019	-0.0283813
-0.0167847	-0.0119019	-0.0286865
-0.0167847	-0.012207	-0.0289917
-0.0164795	-0.0128174	-0.0292969
-0.015564	-0.0137329	-0.0292969
-0.0149536	-0.0143433	-0.0292969
-0.0152588	-0.0143433	-0.0296021
-0.0167847	-0.0140381	-0.0308228
-0.0180054	-0.0143433	-0.0323486
-0.0189209	-0.0152588	-0.0341797
-0.0195313	-0.0161743	-0.0357056
-0.0198364	-0.0170898	-0.0369263
-0.0204468	-0.0170898	-0.0375366
-0.0216675	-0.0170898	-0.0387573
-0.022583	-0.0170898	-0.0396729
-0.0231934	-0.0170898	-0.0402832
-0.0238037	-0.0170898	-0.0408936
-0.0244141	-0.0167847	-0.0411987
-0.0247192	-0.0167847	-0.0415039
-0.0259399	-0.0164795	-0.0424194
-0.0280762	-0.0158691	-0.0439453
-0.0305176	-0.0152588	-0.0457764
-0.0323486	-0.0149536	-0.0473022
-0.0338745	-0.0143433	-0.0482178
-0.0344849	-0.0149536	-0.0494385
-0.0335693	-0.0167847	-0.050354
-0.0314331	-0.0189209	-0.050354
-0.0292969	-0.020752	-0.0500488
-0.0274658	-0.0216675	-0.0491333
-0.0259399	-0.0219727	-0.0479126
-0.0253296	-0.0216675	-0.0469971
-0.0250244	-0.0210571	-0.0460815
-0.0241089	-0.0204468	-0.0445557
-0.0234985	-0.0195313	-0.0430298
-0.0238037	-0.0180054	-0.0418091
-0.0247192	-0.0164795	-0.0411987
-0.0250244	-0.0146484	-0.0396729
-0.0247192	-0.0134277	-0.038147
-0.0238037	-0.0125122	-0.0363159
-0.0231934	-0.0119019	-0.0350952
-0.0219727	-0.0115967	-0.0335693
-0.0210571	-0.0109863	-0.0320435
-0.0204468	-0.00976563	-0.0302124
-0.0210571	-0.00762939	-0.0286865
-0.0219727	-0.00427246	-0.0262451
-0.022583	-0.000915527	-0.0234985
-0.0234985	0.00274658	-0.020752
-0.0244141	0.00701904	-0.017395
-0.0253296	0.0119019	-0.0134277
-0.0259399	0.0161743	-0.00976563
-0.0259399	0.0195313	-0.00640869
-0.0253296	0.022583	-0.00274658
-0.0244141	0.0253296	0.000915527
-0.0228882	0.0274658	0.00457764
-0.0210571	0.0296021	0.00854492
-0.0192261	0.0314331	0.012207
-0.0177002	0.032959	0.0152588
-0.0158691	0.0332642	0.017395
-0.0140381	0.032959	0.0189209
-0.0119019	0.0323486	0.0204468
-0.00946045	0.0314331	0.0219727
-0.00518799	0.0292969	0.0241089
0.000610352	0.0256348	0.0262451
0.00793457	0.0216675	0.0296021
0.015564	0.0177002	0.0332642
0.0231934	0.0134277	0.0366211
0.0299072	0.00976563	0.0396729
0.0350952	0.00793457	0.0430298
0.0390625	0.00701904	0.0460815
0.0421143	0.00701904	0.0491333
0.0442505	0.00793457	0.0521851
0.0442505	0.00915527	0.0534058
0.0415039	0.010376	0.0518799
0.0375366	0.0115967	0.0491333
0.0332642	0.0112915	0.0445557
0.0299072	0.00946045	0.0393677
0.0271606	0.00579834	0.032959
0.0247192	0.0012207	0.0259399
0.0222778	-0.00457764	0.0177002
0.0192261	-0.0100708	0.00915527
0.0149536	-0.015564	-0.000610352
0.0112915	-0.0210571	-0.00976563
0.00793457	-0.0262451	-0.0183105
0.00335693	-0.0305176	-0.0271606
-0.00305176	-0.0323486	-0.0354004
-0.0106812	-0.032959	-0.0436401
-0.0180054	-0.032959	-0.0509644
-0.0253296	-0.0323486	-0.0576782
-0.0323486	-0.0314331	-0.0637817
-0.038147	-0.0305176	-0.0686646
-0.0430298	-0.0292969	-0.0723267
-0.0457764	-0.0286865	-0.0744629
-0.0469971	-0.0292969	-0.0762939
-0.0466919	-0.0305176	-0.0772095
-0.045166	-0.0314331	-0.0765991
-0.0436401	-0.0323486	-0.0759888
-0.0424194	-0.0326538	-0.0750732
-0.0418091	-0.0332642	-0.0750732
-0.0405884	-0.0338745	-0.0744629
-0.0393677	-0.03479	-0.0741577
-0.0387573	-0.03479	-0.0735474
-0.0387573	-0.03479	-0.0735474
-0.0393677	-0.0344849	-0.0738525
-0.0411987	-0.0341797	-0.0753784
-0.0430298	-0.0350952	-0.078125
-0.0439453	-0.0387573	-0.0827026
-0.0436401	-0.0460815	-0.0897217
-0.0421143	-0.0549316	-0.0970459
-0.039978	-0.062561	-0.102539
-0.0366211	-0.0692749	-0.105896
-0.0302124	-0.0750732	-0.105286
-0.0204468	-0.0799561	-0.100403
-0.00701904	-0.0827026	-0.0897217
0.012207	-0.0808716	-0.0686646
0.0372314	-0.0698853	-0.0326538
0.0671387	-0.0445557	0.022583
0.098877	-0.00366211	0.0952148
0.131836	0.0512695	0.183105
0.16449	0.117493	0.281982
0.195313	0.193787	0.389099
0.220947	0.281677	0.502625
0.236816	0.38208	0.618896
0.239563	0.492859	0.732422
0.227661	0.606384	0.834045
0.199585	0.709534	0.909119
0.15686	0.789185	0.946045
0.102844	0.835571	0.938416
0.0411987	0.843506	0.884705
-0.0234985	0.811157	0.787659
-0.0866699	0.739136	0.652466
-0.142822	0.631104	0.488281
-0.186768	0.49408	0.307312
-0.215759	0.33905	0.123291
-0.228882	0.178223	-0.0506592
-0.22644	0.0241089	-0.202332
-0.210876	-0.110779	-0.321655
-0.185547	-0.215759	-0.401306
-0.154114	-0.285339	-0.439453
-0.120544	-0.318604	-0.439148
-0.0897217	-0.317993	-0.407715
-0.0640869	-0.291443	-0.35553
-0.0454712	-0.248413	-0.293884
-0.0344849	-0.198059	-0.232544
-0.0308228	-0.147705	-0.178528
-0.0326538	-0.10376	-0.136414
-0.038147	-0.0695801	-0.107727
-0.0442505	-0.0460815	-0.090332
-0.0491333	-0.032959	-0.0820923
-0.0531006	-0.0280762	-0.0811768
-0.0558472	-0.0286865	-0.0845337
-0.0576782	-0.0323486	-0.0900269
-0.0576782	-0.0378418	-0.09552
-0.0564575	-0.0436401	-0.100098
-0.0543213	-0.0488281	-0.103149
-0.0515747	-0.0531006	-0.104675
-0.0488281	-0.0558472	-0.104675
-0.0463867	-0.0567627	-0.103149
-0.0445557	-0.0561523	-0.100708
-0.0424194	-0.0549316	-0.0973511
-0.0402832	-0.0537109	-0.0939941
-0.038147	-0.0521851	-0.090332
-0.0366211	-0.0509644	-0.0875854
-0.0360107	-0.0497437	-0.0857544
-0.0357056	-0.0485229	-0.0842285
-0.03479	-0.0476074	-0.0823975
-0.0335693	-0.0469971	-0.0805664
-0.032959	-0.0457764	-0.0787354
-0.0338745	-0.0439453	-0.0778198
-0.0354004	-0.0418091	-0.0772095
-0.0363159	-0.0402832	-0.0765991
-0.0360107	-0.0402832	-0.0762939
-0.03479	-0.0402832	-0.0750732
-0.0335693	-0.0402832	-0.0738525
-0.0326538	-0.039978	-0.0726318
-0.0326538	-0.0393677	-0.0720215
-0.0326538	-0.0390625	-0.0717163
-0.0326538	-0.0387573	-0.0714111
-0.0323486	-0.0393677	-0.0717163
-0.0311279	-0.0405884	-0.0717163
-0.0299072	-0.0411987	-0.071106
-0.0292969	-0.0415039	-0.0708008
-0.0286865	-0.0408936	-0.0695801
-0.0274658	-0.0408936	-0.0683594
-0.0256348	-0.0411987	-0.0668335
-0.0234985	-0.0415039	-0.0650024
-0.0213623	-0.0415039	-0.0628662
-0.0198364	-0.0408936	-0.06073
-0.0180054	-0.039978	-0.0579834
-0.0164795	-0.0390625	-0.055542
-0.015564	-0.0372314	-0.0527954
-0.0146484	-0.0357056	-0.050354
-0.0134277	-0.0344849	-0.0479126
-0.012207	-0.0335693	-0.0457764
-0.0115967	-0.0320435	-0.0436401
-0.0106812	-0.0311279	-0.0418091
-0.0088501	-0.0311279	-0.039978
-0.00671387	-0.0317383	-0.0384521
-0.00488281	-0.0323486	-0.0372314
-0.00366211	-0.032959	-0.0366211
-0.00274658	-0.0335693	-0.0363159
-0.00183105	-0.0338745	-0.0357056
-0.000610352	-0.0344849	-0.0350952
0.000610352	-0.0344849	-0.0338745
0.00152588	-0.0344849	-0.032959
0.00305176	-0.0344849	-0.0314331
0.00488281	-0.0341797	-0.0292969
0.00671387	-0.0332642	-0.0265503
0.00793457	-0.0314331	-0.0234985
0.0088501	-0.0286865	-0.0198364
0.010376	-0.0265503	-0.0161743
0.0125122	-0.0250244	-0.0125122
0.0152588	-0.0234985	-0.00823975
0.0167847	-0.0213623	-0.00457764
0.017395	-0.0183105	-0.000915527
0.0183105	-0.015564	0.00274658
0.0204468	-0.0137329	0.00671387
0.0241089	-0.0134277	0.0106812
0.0283813	-0.0131226	0.0152588
0.0320435	-0.0125122	0.0195313
0.0354004	-0.0115967	0.0238037
0.0384521	-0.0109863	0.0274658
0.0421143	-0.0100708	0.0320435
0.0454712	-0.0088501	0.0366211
0.0476074	-0.00640869	0.0411987
0.0494385	-0.00396729	0.0454712
0.0509644	-0.00152588	0.0494385
0.0527954	0.000610352	0.0534058
0.0543213	0.00305176	0.057373
0.0561523	0.00488281	0.0610352
0.0582886	0.00701904	0.0653076
0.0604248	0.00854492	0.0689697
0.0628662	0.0100708	0.072937
0.065918	0.0112915	0.0772095
0.0689697	0.0125122	0.0814819
0.0717163	0.0137329	0.0854492
0.0738525	0.0149536	0.0888062
0.0759888	0.0167847	0.0927734
0.078125	0.0189209	0.0970459
0.0802612	0.020752	0.101013
0.0820923	0.0222778	0.10437
0.083313	0.0238037	0.107117
0.0839233	0.0256348	0.109558
0.0839233	0.0271606	0.111084
0.083313	0.0283813	0.111694
0.0814819	0.0296021	0.111084
0.0793457	0.0302124	0.109558
0.0772095	0.0299072	0.107117
0.0741577	0.0289917	0.103149
0.0708008	0.027771	0.0985718
0.0671387	0.0262451	0.0933838
0.062561	0.0253296	0.0878906
0.0585938	0.0234985	0.0820923
0.0558472	0.0204468	0.0762939
0.0534058	0.0164795	0.0698853
0.0506592	0.012207	0.0628662
0.0463867	0.00946045	0.0558472
0.0411987	0.00732422	0.0485229
0.0363159	0.00549316	0.0418091
0.0320435	0.00274658	0.03479
0.0280762	-0.000305176	0.027771
0.0231934	-0.00335693	0.0198364
0.0180054	-0.00610352	0.0119019
0.0125122	-0.00854492	0.00396729
0.00732422	-0.0106812	-0.00335693
0.00274658	-0.0125122	-0.00976563
-0.0012207	-0.0143433	-0.015564
-0.00457764	-0.015564	-0.0201416
-0.00762939	-0.0167847	-0.0244141
-0.010376	-0.0183105	-0.0286865
-0.0128174	-0.0195313	-0.0323486
-0.0146484	-0.020752	-0.0354004
-0.0158691	-0.0222778	-0.038147
-0.0161743	-0.0238037	-0.039978
-0.0164795	-0.0253296	-0.0418091
-0.0167847	-0.0271606	-0.0439453
-0.0167847	-0.0289917	-0.0457764
-0.0167847	-0.0305176	-0.0473022
-0.017395	-0.0314331	-0.0488281
-0.0180054	-0.0323486	-0.050354
-0.0186157	-0.0335693	-0.0521851
-0.0189209	-0.0338745	-0.0527954
-0.0192261	-0.0338745	-0.0531006
-0.0198364	-0.0332642	-0.0531006
-0.0204468	-0.0323486	-0.0527954
-0.0213623	-0.0311279	-0.0524902
-0.0216675	-0.0302124	-0.0518799
-0.0213623	-0.0296021	-0.0509644
-0.0210571	-0.0289917	-0.0500488
-0.0210571	-0.0283813	-0.0494385
-0.020752	-0.0271606	-0.0479126
-0.0195313	-0.0262451	-0.0457764
-0.0167847	-0.0262451	-0.0430298
-0.0134277	-0.0268555	-0.0402832
-0.0109863	-0.0268555	-0.0378418
-0.00946045	-0.0259399	-0.0354004
-0.00823975	-0.0256348	-0.0338745
-0.00671387	-0.0262451	-0.032959
-0.00549316	-0.0271606	-0.0326538
-0.00427246	-0.0280762	-0.0323486
-0.00427246	-0.027771	-0.0320435
-0.00549316	-0.0265503	-0.0320435
-0.00640869	-0.0256348	-0.0320435
-0.00640869	-0.0250244	-0.0314331
-0.00579834	-0.0250244	-0.0308228
-0.00518799	-0.0250244	-0.0302124
-0.00549316	-0.0241089	-0.0296021
-0.00579834	-0.0231934	-0.0289917
-0.00518799	-0.022583	-0.027771
-0.00427246	-0.0222778	-0.0265503
-0.00305176	-0.0222778	-0.0253296
-0.00244141	-0.0216675	-0.0241089
-0.00213623	-0.0210571	-0.0231934
-0.00244141	-0.0201416	-0.022583
-0.00274658	-0.0198364	-0.022583
-0.00244141	-0.0198364	-0.0222778
-0.00152588	-0.0201416	-0.0216675
-0.000305176	-0.020752	-0.0210571
0.000305176	-0.0204468	-0.0201416
-0.000915527	-0.0189209	-0.0198364
-0.00213623	-0.0177002	-0.0198364
-0.00244141	-0.017395	-0.0198364
-0.00213623	-0.0177002	-0.0198364
-0.00274658	-0.0177002	-0.0204468
-0.00366211	-0.017395	-0.0210571
-0.00427246	-0.0177002	-0.0219727
-0.00396729	-0.0183105	-0.0222778
-0.00274658	-0.0198364	-0.022583
-0.000915527	-0.0210571	-0.0219727
0.00152588	-0.0228882	-0.0213623
0.00366211	-0.0244141	-0.020752
0.00579834	-0.0259399	-0.0201416
0.00732422	-0.027771	-0.0204468
0.00823975	-0.0292969	-0.0210571
0.00793457	-0.0305176	-0.022583
0.00762939	-0.0314331	-0.0238037
0.00701904	-0.0314331	-0.0244141
0.00579834	-0.0308228	-0.0250244
0.00427246	-0.0305176	-0.0262451
0.00213623	-0.0299072	-0.027771
-0.00152588	-0.0280762	-0.0296021
-0.00488281	-0.0262451	-0.0311279
-0.00640869	-0.0256348	-0.0320435
-0.00640869	-0.0256348	-0.0320435
-0.00640869	-0.0256348	-0.0320435
-0.00671387	-0.0259399	-0.0326538
-0.00701904	-0.0265503	-0.0335693
-0.00701904	-0.027771	-0.03479
-0.00610352	-0.0302124	-0.0363159
-0.00488281	-0.0332642	-0.038147
-0.00396729	-0.0363159	-0.0402832
-0.00305176	-0.0384521	-0.0415039
-0.00244141	-0.0402832	-0.0427246
-0.00244141	-0.0411987	-0.0436401
-0.00244141	-0.0418091	-0.0442505
-0.00305176	-0.0415039	-0.0445557
-0.00488281	-0.0405884	-0.0454712
-0.00701904	-0.0390625	-0.0460815
-0.00976563	-0.0366211	-0.0463867
-0.0131226	-0.0332642	-0.0463867
-0.015564	-0.0311279	-0.0466919
-0.0158691	-0.0299072	-0.0457764
-0.0158691	-0.0292969	-0.045166
-0.0152588	-0.0283813	-0.0436401
-0.015564	-0.0274658	-0.0430298
-0.015564	-0.0259399	-0.0415039
-0.0149536	-0.0241089	-0.0390625
-0.0131226	-0.0228882	-0.0360107
-0.0106812	-0.0216675	-0.0323486
-0.00823975	-0.0204468	-0.0286865
-0.00610352	-0.0186157	-0.0247192
-0.00427246	-0.0164795	-0.020752
-0.00305176	-0.0134277	-0.0164795
-0.00183105	-0.00976563	-0.0115967
0	-0.00640869	-0.00640869
0.00213623	-0.00335693	-0.0012207
0.00396729	0	0.00396729
0.00640869	0.00244141	0.0088501
0.00854492	0.00366211	0.012207
0.0106812	0.00335693	0.0140381
0.0125122	0.00213623	0.0146484
0.0146484	0.000305176	0.0149536
0.0170898	-0.00213623	0.0149536
0.0201416	-0.00488281	0.0152588
0.0231934	-0.00732422	0.0158691
0.0271606	-0.00976563	0.017395
0.0317383	-0.0125122	0.0192261
0.0372314	-0.0143433	0.0228882
0.0421143	-0.0149536	0.0271606
0.045166	-0.0134277	0.0317383
0.0469971	-0.0106812	0.0363159
0.0491333	-0.00823975	0.0408936
0.0509644	-0.00671387	0.0442505
0.0524902	-0.00610352	0.0463867
0.0534058	-0.00640869	0.0469971
0.0534058	-0.00762939	0.0457764
0.0524902	-0.010376	0.0421143
0.0500488	-0.0143433	0.0357056
0.0476074	-0.0195313	0.0280762
0.045166	-0.0259399	0.0192261
0.0421143	-0.0323486	0.00976563
0.0384521	-0.0387573	-0.000305176
0.032959	-0.0445557	-0.0115967
0.0253296	-0.0491333	-0.0238037
0.0161743	-0.0527954	-0.0366211
0.00640869	-0.0549316	-0.0485229
-0.00244141	-0.0561523	-0.0585938
-0.0106812	-0.0570679	-0.067749
-0.0183105	-0.057373	-0.0756836
-0.0244141	-0.0576782	-0.0820923
-0.0296021	-0.057373	-0.0869751
-0.0338745	-0.0561523	-0.0900269
-0.0378418	-0.0543213	-0.0921631
-0.0390625	-0.0537109	-0.0927734
-0.0378418	-0.0546265	-0.0924683
-0.03479	-0.0561523	-0.0909424
-0.0323486	-0.057373	-0.0897217
-0.0299072	-0.0585938	-0.088501
-0.0274658	-0.0601196	-0.0875854
-0.0247192	-0.0622559	-0.0869751
-0.0228882	-0.0643921	-0.0872803
-0.0216675	-0.0665283	-0.0881958
-0.020752	-0.0689697	-0.0897217
-0.020752	-0.0708008	-0.0915527
-0.0213623	-0.072937	-0.0942993
-0.022583	-0.0747681	-0.0973511
-0.0238037	-0.078125	-0.101929
-0.0244141	-0.0839233	-0.108337
-0.0238037	-0.0924683	-0.116272
-0.0222778	-0.101929	-0.124207
-0.0195313	-0.110779	-0.13031
-0.0149536	-0.117798	-0.132751
-0.00854492	-0.122681	-0.131226
0.0012207	-0.125122	-0.123901
0.0158691	-0.125122	-0.109253
0.0354004	-0.118103	-0.0827026
0.0598145	-0.0997925	-0.039978
0.0891113	-0.0674438	0.0216675
0.12085	-0.020752	0.100098
0.153198	0.0393677	0.192566
0.184937	0.109558	0.294495
0.213623	0.189819	0.403442
0.234375	0.282288	0.516663
0.243835	0.386353	0.630188
0.240173	0.498352	0.738525
0.221252	0.610046	0.831299
0.186462	0.709229	0.895691
0.136719	0.782471	0.919189
0.0769043	0.821533	0.898438
0.0115967	0.822144	0.83374
-0.0546265	0.784302	0.729675
-0.116577	0.709839	0.593262
-0.168762	0.601807	0.433044
-0.206909	0.466919	0.26001
-0.229492	0.314026	0.0845337
-0.235291	0.155945	-0.0793457
-0.22583	0.00549316	-0.220337
-0.203247	-0.124817	-0.328064
-0.172119	-0.226135	-0.398254
-0.137024	-0.293884	-0.430908
-0.101929	-0.328064	-0.429993
-0.0701904	-0.332947	-0.403137
-0.0448608	-0.314636	-0.359497
-0.0274658	-0.280457	-0.307922
-0.0180054	-0.238342	-0.256348
-0.0146484	-0.196228	-0.210876
-0.0152588	-0.158997	-0.174255
-0.0170898	-0.130005	-0.147095
-0.0198364	-0.108948	-0.128784
-0.0231934	-0.0949097	-0.118103
-0.0265503	-0.0866699	-0.11322
-0.0283813	-0.083313	-0.111694
-0.0283813	-0.0836182	-0.112
-0.0265503	-0.0863647	-0.112915
-0.0247192	-0.0900269	-0.114746
-0.0238037	-0.0930786	-0.116882
-0.0244141	-0.0952148	-0.119629
-0.0256348	-0.0961304	-0.121765
-0.0274658	-0.0958252	-0.123291
-0.0292969	-0.0946045	-0.123901
-0.0311279	-0.0927734	-0.123901
-0.0323486	-0.0912476	-0.123596
-0.0326538	-0.0897217	-0.122375
-0.0323486	-0.0881958	-0.120544
-0.0305176	-0.0866699	-0.117188
-0.0280762	-0.0860596	-0.114136
-0.0253296	-0.0854492	-0.110779
-0.0228882	-0.085144	-0.108032
-0.0201416	-0.0848389	-0.10498
-0.0183105	-0.0845337	-0.102844
-0.0170898	-0.0836182	-0.100708
-0.0170898	-0.0830078	-0.100098
-0.0164795	-0.0830078	-0.0994873
-0.0161743	-0.083313	-0.0994873
-0.0161743	-0.0836182	-0.0997925
-0.0177002	-0.083313	-0.101013
-0.0195313	-0.0820923	-0.101624
-0.0210571	-0.0811768	-0.102234
-0.020752	-0.0808716	-0.101624
-0.0195313	-0.0808716	-0.100403
-0.0170898	-0.0808716	-0.0979614
-0.0134277	-0.0805664	-0.0939941
-0.00946045	-0.0802612	-0.0897217
-0.00549316	-0.0799561	-0.0854492
-0.00213623	-0.0790405	-0.0811768
-0.000305176	-0.0769043	-0.0772095
0.000610352	-0.0744629	-0.0738525
0.000610352	-0.0720215	-0.0714111
0.000305176	-0.0695801	-0.0692749
-0.000915527	-0.0674438	-0.0683594
-0.00213623	-0.0656128	-0.067749
-0.00366211	-0.0643921	-0.0680542
-0.00427246	-0.0634766	-0.067749
-0.00396729	-0.0634766	-0.0674438
-0.00274658	-0.0640869	-0.0668335
-0.000610352	-0.0650024	-0.0656128
0.00244141	-0.065918	-0.0634766
0.00610352	-0.0671387	-0.0610352
0.00915527	-0.0683594	-0.0592041
0.0119019	-0.0686646	-0.0567627
0.0137329	-0.0680542	-0.0543213
0.0146484	-0.0668335	-0.0521851
0.0149536	-0.0653076	-0.050354
0.0149536	-0.0634766	-0.0485229
0.0143433	-0.0610352	-0.0466919
0.0134277	-0.0582886	-0.0448608
0.0128174	-0.0561523	-0.043335
0.0134277	-0.0549316	-0.0415039
0.015564	-0.0546265	-0.0390625
0.0192261	-0.0549316	-0.0357056
0.0238037	-0.055542	-0.0317383
0.0283813	-0.055542	-0.0271606
0.0323486	-0.0549316	-0.022583
0.0357056	-0.0537109	-0.0180054
0.0390625	-0.0521851	-0.0131226
0.0424194	-0.0506592	-0.00823975
0.0454712	-0.0500488	-0.00457764
0.0476074	-0.0488281	-0.0012207
0.0482178	-0.0469971	0.0012207
0.0476074	-0.0442505	0.00335693
0.0473022	-0.0421143	0.00518799
0.0479126	-0.0411987	0.00671387
0.0494385	-0.0411987	0.00823975
0.0515747	-0.0415039	0.0100708
0.0543213	-0.0415039	0.0128174
0.0576782	-0.0415039	0.0161743
0.0613403	-0.0411987	0.0201416
0.0650024	-0.0405884	0.0244141
0.067749	-0.0387573	0.0289917
0.0704956	-0.0369263	0.0335693
0.0735474	-0.0350952	0.0384521
0.0762939	-0.032959	0.043335
0.0778198	-0.0302124	0.0476074
0.0790405	-0.0274658	0.0515747
0.0805664	-0.0250244	0.055542
0.0823975	-0.0228882	0.0595093
0.0839233	-0.020752	0.0631714
0.0854492	-0.0186157	0.0668335
0.0869751	-0.0164795	0.0704956
0.088501	-0.0143433	0.0741577
0.0897217	-0.012207	0.0775146
0.0909424	-0.0106812	0.0802612
0.0921631	-0.00946045	0.0827026
0.0927734	-0.00823975	0.0845337
0.0927734	-0.00701904	0.0857544
0.0930786	-0.00610352	0.0869751
0.093689	-0.00640869	0.0872803
0.093689	-0.00732422	0.0863647
0.0927734	-0.00854492	0.0842285
0.0906372	-0.0100708	0.0805664
0.0878906	-0.012207	0.0756836
0.0848389	-0.0146484	0.0701904
0.0805664	-0.0167847	0.0637817
0.0741577	-0.0183105	0.0558472
0.0665283	-0.0189209	0.0476074
0.0588989	-0.0201416	0.0387573
0.0518799	-0.0210571	0.0308228
0.0442505	-0.0213623	0.0228882
0.0369263	-0.0213623	0.015564
0.0311279	-0.0216675	0.00946045
0.0262451	-0.0216675	0.00457764
0.0216675	-0.0213623	0.000305176
0.0180054	-0.0219727	-0.00396729
0.0152588	-0.022583	-0.00732422
0.012207	-0.0234985	-0.0112915
0.00915527	-0.0234985	-0.0143433
0.00549316	-0.0231934	-0.0177002
0.00152588	-0.022583	-0.0210571
-0.00244141	-0.022583	-0.0250244
-0.00671387	-0.0231934	-0.0299072
-0.0100708	-0.0244141	-0.0344849
-0.0128174	-0.0262451	-0.0390625
-0.0146484	-0.0286865	-0.043335
-0.0149536	-0.0314331	-0.0463867
-0.0146484	-0.0338745	-0.0485229
-0.0134277	-0.0372314	-0.0506592
-0.0109863	-0.0411987	-0.0521851
-0.00823975	-0.045166	-0.0534058
-0.00610352	-0.0476074	-0.0537109
-0.00488281	-0.0485229	-0.0534058
-0.00427246	-0.0479126	-0.0521851
-0.00427246	-0.0469971	-0.0512695
-0.00488281	-0.0454712	-0.050354
-0.00610352	-0.0436401	-0.0497437
-0.00823975	-0.0415039	-0.0497437
-0.0106812	-0.0393677	-0.0500488
-0.0125122	-0.0375366	-0.0500488
-0.0134277	-0.0363159	-0.0497437
-0.0137329	-0.0357056	-0.0494385
-0.0140381	-0.0354004	-0.0494385
-0.0137329	-0.0357056	-0.0494385
-0.0128174	-0.0366211	-0.0494385
-0.0115967	-0.0372314	-0.0488281
-0.0109863	-0.0372314	-0.0482178
-0.010376	-0.0372314	-0.0476074
-0.00946045	-0.0375366	-0.0469971
-0.00762939	-0.0384521	-0.0460815
-0.00640869	-0.0390625	-0.0454712
-0.00579834	-0.0390625	-0.0448608
-0.00640869	-0.0384521	-0.0448608
-0.00732422	-0.0369263	-0.0442505
-0.00762939	-0.0357056	-0.043335
-0.00762939	-0.0344849	-0.0421143
-0.00732422	-0.0335693	-0.0408936
-0.00762939	-0.0323486	-0.039978
-0.00823975	-0.0311279	-0.0393677
-0.0088501	-0.0302124	-0.0390625
-0.0088501	-0.0292969	-0.038147
-0.0088501	-0.0289917	-0.0378418
-0.00793457	-0.0296021	-0.0375366
-0.00701904	-0.0305176	-0.0375366
-0.00549316	-0.0320435	-0.0375366
-0.00457764	-0.0335693	-0.038147
-0.00335693	-0.0344849	-0.0378418
-0.00213623	-0.0350952	-0.0372314
-0.000915527	-0.0350952	-0.0360107
0.000305176	-0.0350952	-0.03479
0.00183105	-0.03479	-0.032959
0.00274658	-0.0335693	-0.0308228
0.00274658	-0.0314331	-0.0286865
0.00244141	-0.0292969	-0.0268555
0.00244141	-0.027771	-0.0253296
0.00244141	-0.0265503	-0.0241089
0.00244141	-0.0259399	-0.0234985
0.00305176	-0.0256348	-0.022583
0.00396729	-0.0259399	-0.0219727
0.00457764	-0.0256348	-0.0210571
0.00396729	-0.0256348	-0.0216675
0.00305176	-0.0256348	-0.022583
0.00274658	-0.0268555	-0.0241089
0.00274658	-0.027771	-0.0250244
0.00244141	-0.0280762	-0.0256348
0.00152588	-0.0280762	-0.0265503
0.000305176	-0.027771	-0.0274658
-0.000610352	-0.027771	-0.0283813
-0.00183105	-0.027771	-0.0296021
-0.00274658	-0.0280762	-0.0308228
-0.00396729	-0.0274658	-0.0314331
-0.00640869	-0.0250244	-0.0314331
-0.00915527	-0.0222778	-0.0314331
-0.0106812	-0.0213623	-0.0320435
-0.010376	-0.0219727	-0.0323486
-0.00976563	-0.0228882	-0.0326538
-0.00915527	-0.0238037	-0.032959
-0.00762939	-0.0250244	-0.0326538
-0.00518799	-0.0271606	-0.0323486
-0.00213623	-0.0299072	-0.0320435
0.000610352	-0.0332642	-0.0326538
0.00335693	-0.0360107	-0.0326538
0.00549316	-0.0375366	-0.0320435
0.00671387	-0.0375366	-0.0308228
0.00610352	-0.0354004	-0.0292969
0.00457764	-0.0317383	-0.0271606
0.00244141	-0.0271606	-0.0247192
0.000305176	-0.0216675	-0.0213623
-0.0012207	-0.0158691	-0.0170898
-0.00305176	-0.00946045	-0.0125122
-0.00518799	-0.00274658	-0.00793457
-0.00610352	0.00305176	-0.00305176
-0.00488281	0.00701904	0.00213623
-0.00183105	0.0088501	0.00701904
0.00152588	0.00976563	0.0112915
0.00427246	0.00976563	0.0140381
0.00671387	0.0088501	0.015564
0.00854492	0.00732422	0.0158691
0.00976563	0.00610352	0.0158691
0.0112915	0.00457764	0.0158691
0.0128174	0.00335693	0.0161743
0.0149536	0.00244141	0.017395
0.0170898	0.00274658	0.0198364
0.0198364	0.00274658	0.022583
0.0238037	0.00305176	0.0268555
0.0296021	0.00274658	0.0323486
0.0357056	0.00305176	0.0387573
0.0408936	0.00396729	0.0448608
0.0457764	0.00488281	0.0506592
0.050354	0.00457764	0.0549316
0.0543213	0.00396729	0.0582886
0.0567627	0.00274658	0.0595093
0.0579834	0.000305176	0.0582886
0.0576782	-0.00305176	0.0546265
0.055542	-0.00640869	0.0491333
0.0521851	-0.0109863	0.0411987
0.0476074	-0.0158691	0.0317383
0.0424194	-0.0216675	0.020752
0.0369263	-0.0280762	0.0088501
0.0314331	-0.0344849	-0.00305176
0.0262451	-0.0405884	-0.0143433
0.0213623	-0.0460815	-0.0247192
0.0158691	-0.0506592	-0.03479
0.00946045	-0.0540161	-0.0445557
0.00244141	-0.055542	-0.0531006
-0.00518799	-0.055542	-0.06073
-0.0119019	-0.0546265	-0.0665283
-0.0183105	-0.0534058	-0.0717163
-0.0241089	-0.0518799	-0.0759888
-0.0292969	-0.050354	-0.0796509
-0.0335693	-0.0491333	-0.0827026
-0.0363159	-0.0488281	-0.085144
-0.0378418	-0.0491333	-0.0869751
-0.0384521	-0.050354	-0.0888062
-0.038147	-0.0515747	-0.0897217
-0.0372314	-0.0531006	-0.090332
-0.0357056	-0.0543213	-0.0900269
-0.0344849	-0.0549316	-0.0894165
-0.0332642	-0.055542	-0.0888062
-0.0323486	-0.0558472	-0.0881958
-0.0320435	-0.055542	-0.0875854
-0.0323486	-0.0546265	-0.0869751
-0.0335693	-0.0534058	-0.0869751
-0.0350952	-0.0527954	-0.0878906
-0.0360107	-0.0549316	-0.0909424
-0.0354004	-0.06073	-0.0961304
-0.0332642	-0.0701904	-0.103455
-0.0296021	-0.0802612	-0.109863
-0.0253296	-0.0888062	-0.114136
-0.0195313	-0.09552	-0.115051
-0.0119019	-0.100708	-0.11261
-0.00213623	-0.103455	-0.105591
0.0115967	-0.100403	-0.0888062
0.0305176	-0.0891113	-0.0585938
0.0552368	-0.0665283	-0.0112915
0.0836182	-0.0296021	0.0540161
0.112915	0.0222778	0.135193
0.140991	0.0866699	0.227661
0.166931	0.162048	0.328979
0.187988	0.248413	0.436401
0.2005	0.346069	0.54657
0.202637	0.452881	0.655518
0.192871	0.56366	0.756531
0.168762	0.670166	0.838928
0.1297	0.759277	0.888977
0.0790405	0.820007	0.899048
0.0213623	0.844421	0.865784
-0.0390625	0.830994	0.791931
-0.0976563	0.779419	0.681763
-0.150146	0.692444	0.542297
-0.19165	0.574646	0.382996
-0.218811	0.43335	0.214539
-0.230408	0.278015	0.0476074
-0.226746	0.121155	-0.105591
-0.211487	-0.022583	-0.23407
-0.187378	-0.142212	-0.32959
-0.157166	-0.231628	-0.388794
-0.124207	-0.288086	-0.412292
-0.0915527	-0.31311	-0.404663
-0.0628662	-0.31189	-0.374756
-0.0408936	-0.290222	-0.331116
-0.0265503	-0.255432	-0.281982
-0.0192261	-0.215454	-0.23468
-0.017395	-0.175781	-0.193176
-0.0195313	-0.140991	-0.160522
-0.0247192	-0.11261	-0.137329
-0.0317383	-0.0912476	-0.122986
-0.0387573	-0.0759888	-0.114746
-0.0439453	-0.0674438	-0.111389
-0.0466919	-0.0640869	-0.110779
-0.0485229	-0.0637817	-0.112305
-0.0491333	-0.0646973	-0.113831
-0.0482178	-0.0674438	-0.115662
-0.0466919	-0.0704956	-0.117188
-0.0445557	-0.0732422	-0.117798
-0.0430298	-0.0750732	-0.118103
-0.0415039	-0.0759888	-0.117493
-0.0402832	-0.0762939	-0.116577
-0.0390625	-0.0759888	-0.115051
-0.0387573	-0.0747681	-0.113525
-0.0390625	-0.0726318	-0.111694
-0.0393677	-0.0701904	-0.109558
-0.0390625	-0.0683594	-0.107422
-0.038147	-0.0671387	-0.105286
-0.0369263	-0.0668335	-0.10376
-0.0354004	-0.0671387	-0.102539
-0.0338745	-0.0674438	-0.101318
-0.0326538	-0.0680542	-0.100708
-0.0323486	-0.0686646	-0.101013
-0.0317383	-0.0692749	-0.101013
-0.0308228	-0.0698853	-0.100708
-0.0296021	-0.0701904	-0.0997925
-0.0283813	-0.0708008	-0.0991821
-0.0280762	-0.0704956	-0.0985718
-0.0283813	-0.0692749	-0.0976563
-0.0286865	-0.0680542	-0.0967407
-0.0289917	-0.0662231	-0.0952148
-0.0289917	-0.0646973	-0.093689
-0.027771	-0.0637817	-0.0915527
-0.0259399	-0.0634766	-0.0894165
-0.0247192	-0.0622559	-0.0869751
-0.0241089	-0.06073	-0.0848389
-0.0238037	-0.0592041	-0.0830078
-0.0231934	-0.0582886	-0.0814819
-0.0222778	-0.0576782	-0.0799561
-0.0213623	-0.0570679	-0.0784302
-0.020752	-0.0564575	-0.0772095
-0.0201416	-0.055542	-0.0756836
-0.0195313	-0.0546265	-0.0741577
-0.0183105	-0.0540161	-0.0723267
-0.0164795	-0.0537109	-0.0701904
-0.0146484	-0.0537109	-0.0683594
-0.0131226	-0.0534058	-0.0665283
-0.0112915	-0.0527954	-0.0640869
-0.00946045	-0.0521851	-0.0616455
-0.00793457	-0.0518799	-0.0598145
-0.00579834	-0.0521851	-0.0579834
-0.00427246	-0.0524902	-0.0567627
-0.00335693	-0.0521851	-0.055542
-0.00366211	-0.0515747	-0.0552368
-0.00396729	-0.0506592	-0.0546265
-0.00457764	-0.0497437	-0.0543213
-0.00457764	-0.0494385	-0.0540161
-0.00366211	-0.0494385	-0.0531006
-0.00244141	-0.0488281	-0.0512695
-0.0012207	-0.0476074	-0.0488281
0	-0.0460815	-0.0460815
0.0012207	-0.0445557	-0.043335
0.00305176	-0.0430298	-0.039978
0.00640869	-0.0424194	-0.0360107
0.0100708	-0.0421143	-0.0320435
0.0143433	-0.0421143	-0.027771
0.0192261	-0.0424194	-0.0231934
0.0238037	-0.0430298	-0.0192261
0.0271606	-0.0430298	-0.0158691
0.0302124	-0.0427246	-0.0125122
0.032959	-0.0418091	-0.0088501
0.0357056	-0.0411987	-0.00549316
0.0384521	-0.0402832	-0.00183105
0.0405884	-0.0390625	0.00152588
0.0424194	-0.0375366	0.00488281
0.0442505	-0.0360107	0.00823975
0.0457764	-0.0338745	0.0119019
0.0473022	-0.0317383	0.015564
0.0488281	-0.0296021	0.0192261
0.0509644	-0.0271606	0.0238037
0.0537109	-0.0250244	0.0286865
0.057373	-0.0234985	0.0338745
0.0610352	-0.022583	0.0384521
0.0646973	-0.0213623	0.043335
0.0680542	-0.0198364	0.0482178
0.0708008	-0.017395	0.0534058
0.072937	-0.0149536	0.0579834
0.0744629	-0.0128174	0.0616455
0.0759888	-0.0115967	0.0643921
0.0778198	-0.0109863	0.0668335
0.0793457	-0.010376	0.0689697
0.0802612	-0.00976563	0.0704956
0.0808716	-0.0088501	0.0720215
0.0811768	-0.00793457	0.0732422
0.0811768	-0.00671387	0.0744629
0.0808716	-0.00579834	0.0750732
0.0802612	-0.00488281	0.0753784
0.0790405	-0.00366211	0.0753784
0.0775146	-0.00213623	0.0753784
0.0756836	-0.000915527	0.0747681
0.0735474	-0.000305176	0.0732422
0.0704956	0.000610352	0.071106
0.0668335	0.00183105	0.0686646
0.0631714	0.00244141	0.0656128
0.0588989	0.00213623	0.0610352
0.0540161	0.00183105	0.0558472
0.0488281	0.000915527	0.0497437
0.043335	0.000305176	0.0436401
0.0372314	0	0.0372314
0.0311279	-0.000305176	0.0308228
0.0247192	-0.000305176	0.0244141
0.0186157	-0.000305176	0.0183105
0.0125122	-0.000305176	0.012207
0.00640869	-0.000305176	0.00610352
0.0012207	-0.000305176	0.000915527
-0.00335693	-0.000610352	-0.00396729
-0.00854492	-0.000610352	-0.00915527
-0.0134277	-0.000915527	-0.0143433
-0.0164795	-0.00213623	-0.0186157
-0.0189209	-0.00396729	-0.0228882
-0.0210571	-0.00579834	-0.0268555
-0.0234985	-0.00762939	-0.0311279
-0.0250244	-0.0100708	-0.0350952
-0.0256348	-0.0125122	-0.038147
-0.0253296	-0.0149536	-0.0402832
-0.0247192	-0.0170898	-0.0418091
-0.0234985	-0.0186157	-0.0421143
-0.022583	-0.0198364	-0.0424194
-0.0222778	-0.020752	-0.0430298
-0.0219727	-0.0219727	-0.0439453
-0.0216675	-0.0231934	-0.0448608
-0.0219727	-0.0238037	-0.0457764
-0.0228882	-0.0234985	-0.0463867
-0.0247192	-0.0222778	-0.0469971
-0.0265503	-0.0213623	-0.0479126
-0.027771	-0.0210571	-0.0488281
-0.0280762	-0.0213623	-0.0494385
-0.0280762	-0.0210571	-0.0491333
-0.0283813	-0.0201416	-0.0485229
-0.0283813	-0.0195313	-0.0479126
-0.0274658	-0.0195313	-0.0469971
-0.0262451	-0.0192261	-0.0454712
-0.0253296	-0.0189209	-0.0442505
-0.0247192	-0.0186157	-0.043335
-0.0244141	-0.0183105	-0.0427246
-0.0244141	-0.0180054	-0.0424194
-0.0250244	-0.017395	-0.0424194
-0.0250244	-0.0170898	-0.0421143
-0.0244141	-0.0170898	-0.0415039
-0.0231934	-0.0170898	-0.0402832
-0.0222778	-0.0167847	-0.0390625
-0.0213623	-0.0164795	-0.0378418
-0.020752	-0.0161743	-0.0369263
-0.0201416	-0.0161743	-0.0363159
-0.0192261	-0.0161743	-0.0354004
-0.0183105	-0.0161743	-0.0344849
-0.0177002	-0.015564	-0.0332642
-0.0177002	-0.0146484	-0.0323486
-0.0180054	-0.0134277	-0.0314331
-0.0180054	-0.0125122	-0.0305176
-0.0177002	-0.0115967	-0.0292969
-0.017395	-0.0106812	-0.0280762
-0.0161743	-0.0100708	-0.0262451
-0.0143433	-0.00946045	-0.0238037
-0.0131226	-0.00915527	-0.0222778
-0.0125122	-0.00854492	-0.0210571
-0.0115967	-0.00823975	-0.0198364
-0.0106812	-0.00823975	-0.0189209
-0.0100708	-0.00793457	-0.0180054
-0.010376	-0.00732422	-0.0177002
-0.0109863	-0.00610352	-0.0170898
-0.0119019	-0.00549316	-0.017395
-0.0125122	-0.00488281	-0.017395
-0.0125122	-0.00457764	-0.0170898
-0.0128174	-0.00396729	-0.0167847
-0.0134277	-0.00335693	-0.0167847
-0.0143433	-0.00244141	-0.0167847
-0.0140381	-0.00244141	-0.0164795
-0.0134277	-0.00305176	-0.0164795
-0.0131226	-0.00396729	-0.0170898
-0.0125122	-0.00457764	-0.0170898
-0.0119019	-0.00518799	-0.0170898
-0.0109863	-0.00640869	-0.017395
-0.0100708	-0.00793457	-0.0180054
-0.00946045	-0.00946045	-0.0189209
-0.0088501	-0.0109863	-0.0198364
-0.00854492	-0.012207	-0.020752
-0.00823975	-0.0134277	-0.0216675
-0.00823975	-0.0143433	-0.022583
-0.00823975	-0.015564	-0.0238037
-0.00854492	-0.0167847	-0.0253296
-0.0088501	-0.0180054	-0.0268555
-0.00946045	-0.0183105	-0.027771
-0.00976563	-0.0183105	-0.0280762
-0.00946045	-0.0177002	-0.0271606
-0.00915527	-0.0164795	-0.0256348
-0.0088501	-0.0149536	-0.0238037
-0.00854492	-0.0131226	-0.0216675
-0.0088501	-0.0109863	-0.0198364
-0.00976563	-0.00793457	-0.0177002
-0.010376	-0.00457764	-0.0149536
-0.00976563	-0.00213623	-0.0119019
-0.00915527	0.000305176	-0.0088501
-0.00854492	0.00274658	-0.00579834
-0.00762939	0.00488281	-0.00274658
-0.00701904	0.00701904	0
-0.00610352	0.0088501	0.00274658
-0.00427246	0.010376	0.00610352
-0.00183105	0.0109863	0.00915527
0.000915527	0.0115967	0.0125122
0.00305176	0.0131226	0.0161743
0.00457764	0.0146484	0.0192261
0.00610352	0.0149536	0.0210571
0.00823975	0.0143433	0.022583
0.0100708	0.0131226	0.0231934
0.0115967	0.0125122	0.0241089
0.0131226	0.0119019	0.0250244
0.015564	0.010376	0.0259399
0.0186157	0.00854492	0.0271606
0.0222778	0.00732422	0.0296021
0.0262451	0.00671387	0.032959
0.0308228	0.00701904	0.0378418
0.0354004	0.00762939	0.0430298
0.0396729	0.00854492	0.0482178
0.0427246	0.010376	0.0531006
0.0442505	0.0128174	0.0570679
0.0448608	0.0149536	0.0598145
0.0448608	0.015564	0.0604248
0.0442505	0.0149536	0.0592041
0.0430298	0.012207	0.0552368
0.0408936	0.00854492	0.0494385
0.0378418	0.00366211	0.0415039
0.0341797	-0.00244141	0.0317383
0.0302124	-0.00915527	0.0210571
0.0265503	-0.0161743	0.010376
0.0231934	-0.0238037	-0.000610352
0.0195313	-0.0308228	-0.0112915
0.0149536	-0.0366211	-0.0216675
0.0100708	-0.0411987	-0.0311279
0.00488281	-0.0445557	-0.0396729
-0.000305176	-0.0469971	-0.0473022
-0.00610352	-0.0479126	-0.0540161
-0.012207	-0.0479126	-0.0601196
-0.0183105	-0.0476074	-0.065918
-0.0247192	-0.0463867	-0.071106
-0.0302124	-0.0445557	-0.0747681
-0.0344849	-0.0427246	-0.0772095
-0.038147	-0.0408936	-0.0790405
-0.0415039	-0.0390625	-0.0805664
-0.0445557	-0.0378418	-0.0823975
-0.0460815	-0.0375366	-0.0836182
-0.0463867	-0.0384521	-0.0848389
-0.0454712	-0.0396729	-0.085144
-0.0445557	-0.0405884	-0.085144
-0.0427246	-0.0418091	-0.0845337
-0.0405884	-0.0439453	-0.0845337
-0.038147	-0.0463867	-0.0845337
-0.0360107	-0.0488281	-0.0848389
-0.03479	-0.050354	-0.085144
-0.0344849	-0.0524902	-0.0869751
-0.0338745	-0.0567627	-0.0906372
-0.0326538	-0.0643921	-0.0970459
-0.0320435	-0.0738525	-0.105896
-0.0311279	-0.0830078	-0.114136
-0.027771	-0.0918579	-0.119629
-0.0222778	-0.100098	-0.122375
-0.0143433	-0.106812	-0.121155
-0.00274658	-0.110779	-0.113525
0.0131226	-0.109253	-0.0961304
0.0357056	-0.098877	-0.0631714
0.0628662	-0.0747681	-0.0119019
0.0918579	-0.0335693	0.0582886
0.121765	0.0238037	0.145569
0.151062	0.0952148	0.246277
0.178223	0.178528	0.35675
0.200806	0.273743	0.474548
0.213928	0.381775	0.595703
0.214539	0.500183	0.714722
0.202026	0.622864	0.82489
0.175171	0.73761	0.912781
0.134583	0.830078	0.964661
0.0836182	0.889893	0.973511
0.0259399	0.910339	0.936279
-0.0350952	0.888672	0.853577
-0.0939941	0.823364	0.72937
-0.145569	0.717163	0.571594
-0.185242	0.577393	0.392151
-0.209961	0.415039	0.205078
-0.219421	0.24292	0.0234985
-0.213928	0.0741577	-0.139771
-0.196533	-0.0775146	-0.274048
-0.170288	-0.2005	-0.370789
-0.13916	-0.28717	-0.426331
-0.107117	-0.335388	-0.442505
-0.0775146	-0.346375	-0.423889
-0.0534058	-0.327454	-0.380859
-0.0360107	-0.288086	-0.324097
-0.0253296	-0.237732	-0.263062
-0.0213623	-0.185852	-0.207214
-0.022583	-0.13916	-0.161743
-0.0268555	-0.101929	-0.128784
-0.0320435	-0.0756836	-0.107727
-0.0366211	-0.0601196	-0.0967407
-0.0396729	-0.0527954	-0.0924683
-0.0411987	-0.0521851	-0.0933838
-0.0415039	-0.0552368	-0.0967407
-0.0415039	-0.0601196	-0.101624
-0.0415039	-0.0650024	-0.106506
-0.0411987	-0.0686646	-0.109863
-0.0411987	-0.0708008	-0.112
-0.0408936	-0.0708008	-0.111694
-0.0405884	-0.0698853	-0.110474
-0.0396729	-0.0686646	-0.108337
-0.0384521	-0.0671387	-0.105591
-0.0372314	-0.0656128	-0.102844
-0.0357056	-0.0634766	-0.0991821
-0.0341797	-0.0619507	-0.0961304
-0.0326538	-0.0604248	-0.0930786
-0.0302124	-0.0598145	-0.0900269
-0.027771	-0.0598145	-0.0875854
-0.0256348	-0.0601196	-0.0857544
-0.0250244	-0.0592041	-0.0842285
-0.0256348	-0.0579834	-0.0836182
-0.0256348	-0.0579834	-0.0836182
-0.0250244	-0.0588989	-0.0839233
-0.0244141	-0.0592041	-0.0836182
-0.0241089	-0.0592041	-0.083313
-0.0241089	-0.0592041	-0.083313
-0.0238037	-0.0592041	-0.0830078
-0.0238037	-0.0592041	-0.0830078
-0.0231934	-0.0588989	-0.0820923
-0.0219727	-0.0588989	-0.0808716
-0.0204468	-0.0588989	-0.0793457
-0.0195313	-0.0588989	-0.0784302
-0.0183105	-0.0592041	-0.0775146
-0.0164795	-0.0595093	-0.0759888
-0.0143433	-0.0598145	-0.0741577
-0.012207	-0.0598145	-0.0720215
-0.010376	-0.0598145	-0.0701904
-0.00976563	-0.0592041	-0.0689697
-0.00976563	-0.0582886	-0.0680542
-0.0100708	-0.057373	-0.0674438
-0.00976563	-0.0564575	-0.0662231
-0.00915527	-0.055542	-0.0646973
-0.00946045	-0.0540161	-0.0634766
-0.0100708	-0.0521851	-0.0622559
-0.0109863	-0.0506592	-0.0616455
-0.0115967	-0.0497437	-0.0613403
-0.0106812	-0.0497437	-0.0604248
-0.0088501	-0.0500488	-0.0588989
-0.00762939	-0.0497437	-0.057373
-0.00701904	-0.0485229	-0.055542
-0.00640869	-0.0473022	-0.0537109
-0.00549316	-0.0463867	-0.0518799
-0.00427246	-0.0454712	-0.0497437
-0.00274658	-0.0445557	-0.0473022
-0.00152588	-0.043335	-0.0448608
0	-0.0421143	-0.0421143
0.0012207	-0.0411987	-0.039978
0.00274658	-0.039978	-0.0372314
0.00457764	-0.0390625	-0.0344849
0.00671387	-0.0387573	-0.0320435
0.00946045	-0.0387573	-0.0292969
0.012207	-0.0390625	-0.0268555
0.0146484	-0.0390625	-0.0244141
0.0167847	-0.0384521	-0.0216675
0.0186157	-0.0378418	-0.0192261
0.0201416	-0.0372314	-0.0170898
0.020752	-0.0357056	-0.0149536
0.0219727	-0.0341797	-0.012207
0.0238037	-0.0335693	-0.00976563
0.0259399	-0.0326538	-0.00671387
0.0280762	-0.0314331	-0.00335693
0.0302124	-0.0302124	0
0.032959	-0.0296021	0.00335693
0.0363159	-0.0292969	0.00701904
0.0411987	-0.0296021	0.0115967
0.0466919	-0.0299072	0.0167847
0.0512695	-0.0292969	0.0219727
0.0543213	-0.0286865	0.0256348
0.057373	-0.027771	0.0296021
0.0598145	-0.0265503	0.0332642
0.0622559	-0.0253296	0.0369263
0.0631714	-0.0231934	0.039978
0.062561	-0.0198364	0.0427246
0.0616455	-0.0161743	0.0454712
0.06073	-0.0125122	0.0482178
0.0601196	-0.00915527	0.0509644
0.0601196	-0.00610352	0.0540161
0.0604248	-0.00274658	0.0576782
0.0610352	0.0012207	0.0622559
0.062561	0.00427246	0.0668335
0.0650024	0.00610352	0.071106
0.0680542	0.00701904	0.0750732
0.0704956	0.00793457	0.0784302
0.0726318	0.00854492	0.0811768
0.0741577	0.00915527	0.083313
0.0750732	0.00976563	0.0848389
0.0750732	0.0100708	0.085144
0.0747681	0.0100708	0.0848389
0.0744629	0.00946045	0.0839233
0.0735474	0.0088501	0.0823975
0.0720215	0.00854492	0.0805664
0.0701904	0.00823975	0.0784302
0.0680542	0.00762939	0.0756836
0.0646973	0.00732422	0.0720215
0.0613403	0.00640869	0.067749
0.0570679	0.00549316	0.062561
0.0515747	0.00457764	0.0561523
0.0457764	0.00366211	0.0494385
0.0393677	0.00305176	0.0424194
0.032959	0.00213623	0.0350952
0.0265503	0.000915527	0.0274658
0.020752	-0.000610352	0.0201416
0.0158691	-0.00213623	0.0137329
0.0109863	-0.00396729	0.00701904
0.00671387	-0.00518799	0.00152588
0.00274658	-0.00640869	-0.00366211
-0.000305176	-0.00762939	-0.00793457
-0.00305176	-0.00915527	-0.012207
-0.00549316	-0.010376	-0.0158691
-0.00823975	-0.0106812	-0.0189209
-0.0115967	-0.0106812	-0.0222778
-0.0143433	-0.0109863	-0.0253296
-0.0167847	-0.0112915	-0.0280762
-0.0186157	-0.0119019	-0.0305176
-0.0198364	-0.0128174	-0.0326538
-0.0204468	-0.0143433	-0.03479
-0.020752	-0.0161743	-0.0369263
-0.0204468	-0.0183105	-0.0387573
-0.0198364	-0.0201416	-0.039978
-0.0186157	-0.0219727	-0.0405884
-0.0183105	-0.0234985	-0.0418091
-0.0189209	-0.0244141	-0.043335
-0.0198364	-0.0253296	-0.045166
-0.0213623	-0.0253296	-0.0466919
-0.0234985	-0.0247192	-0.0482178
-0.0256348	-0.0234985	-0.0491333
-0.0265503	-0.0228882	-0.0494385
-0.0259399	-0.0228882	-0.0488281
-0.0247192	-0.0234985	-0.0482178
-0.0228882	-0.0244141	-0.0473022
-0.020752	-0.0256348	-0.0463867
-0.0183105	-0.0268555	-0.045166
-0.015564	-0.027771	-0.043335
-0.0134277	-0.0286865	-0.0421143
-0.0112915	-0.0296021	-0.0408936
-0.0100708	-0.0299072	-0.039978
-0.00976563	-0.0299072	-0.0396729
-0.0106812	-0.0292969	-0.039978
-0.0128174	-0.027771	-0.0405884
-0.0152588	-0.0256348	-0.0408936
-0.0177002	-0.0231934	-0.0408936
-0.0195313	-0.020752	-0.0402832
-0.020752	-0.0183105	-0.0390625
-0.0210571	-0.0158691	-0.0369263
-0.0210571	-0.0143433	-0.0354004
-0.0204468	-0.0125122	-0.032959
-0.0198364	-0.0109863	-0.0308228
-0.0189209	-0.00946045	-0.0283813
-0.0189209	-0.00823975	-0.0271606
-0.0186157	-0.00732422	-0.0259399
-0.0177002	-0.00762939	-0.0253296
-0.0161743	-0.0088501	-0.0250244
-0.0152588	-0.00946045	-0.0247192
-0.0152588	-0.00946045	-0.0247192
-0.0152588	-0.00946045	-0.0247192
-0.0143433	-0.0100708	-0.0244141
-0.0128174	-0.0115967	-0.0244141
-0.0112915	-0.0125122	-0.0238037
-0.00976563	-0.0128174	-0.022583
-0.00854492	-0.0131226	-0.0216675
-0.00701904	-0.0134277	-0.0204468
-0.00640869	-0.0137329	-0.0201416
-0.00610352	-0.0137329	-0.0198364
-0.00671387	-0.0131226	-0.0198364
-0.00762939	-0.012207	-0.0198364
-0.00762939	-0.0115967	-0.0192261
-0.00732422	-0.0119019	-0.0192261
-0.00640869	-0.0125122	-0.0189209
-0.00579834	-0.0131226	-0.0189209
-0.00549316	-0.0131226	-0.0186157
-0.00579834	-0.0131226	-0.0189209
-0.00610352	-0.0125122	-0.0186157
-0.00579834	-0.0125122	-0.0183105
-0.00518799	-0.0128174	-0.0180054
-0.00488281	-0.0131226	-0.0180054
-0.00488281	-0.0131226	-0.0180054
-0.00518799	-0.0128174	-0.0180054
-0.00610352	-0.0119019	-0.0180054
-0.00793457	-0.010376	-0.0183105
-0.0100708	-0.0088501	-0.0189209
-0.0119019	-0.00732422	-0.0192261
-0.0131226	-0.00640869	-0.0195313
-0.0137329	-0.00640869	-0.0201416
-0.0140381	-0.00640869	-0.0204468
-0.0140381	-0.00671387	-0.020752
-0.0134277	-0.00671387	-0.0201416
-0.0128174	-0.00732422	-0.0201416
-0.0112915	-0.00823975	-0.0195313
-0.00946045	-0.00915527	-0.0186157
-0.00793457	-0.00915527	-0.0170898
-0.00671387	-0.00823975	-0.0149536
-0.00640869	-0.00610352	-0.0125122
-0.00701904	-0.00274658	-0.00976563
-0.00823975	0.0012207	-0.00701904
-0.010376	0.00549316	-0.00488281
-0.0125122	0.0100708	-0.00244141
-0.0143433	0.0146484	0.000305176
-0.015564	0.0189209	0.00335693
-0.0158691	0.022583	0.00671387
-0.015564	0.0256348	0.0100708
-0.0140381	0.0280762	0.0140381
-0.0115967	0.0292969	0.0177002
-0.00823975	0.0296021	0.0213623
-0.00427246	0.0286865	0.0244141
-0.000610352	0.0271606	0.0265503
0.00274658	0.0253296	0.0280762
0.00610352	0.0231934	0.0292969
0.0088501	0.0210571	0.0299072
0.0115967	0.0189209	0.0305176
0.0146484	0.0167847	0.0314331
0.0177002	0.0149536	0.0326538
0.0210571	0.0134277	0.0344849
0.0247192	0.0128174	0.0375366
0.0283813	0.0125122	0.0408936
0.0320435	0.0128174	0.0448608
0.0350952	0.0140381	0.0491333
0.0366211	0.0161743	0.0527954
0.0375366	0.0180054	0.055542
0.038147	0.0183105	0.0564575
0.038147	0.0177002	0.0558472
0.0366211	0.0158691	0.0524902
0.0341797	0.0125122	0.0466919
0.0314331	0.00762939	0.0390625
0.0283813	0.00152588	0.0299072
0.0256348	-0.00549316	0.0201416
0.0222778	-0.0125122	0.00976563
0.0183105	-0.0192261	-0.000915527
0.0140381	-0.0256348	-0.0115967
0.00915527	-0.0311279	-0.0219727
0.00396729	-0.0357056	-0.0317383
-0.00183105	-0.0393677	-0.0411987
-0.00762939	-0.0415039	-0.0491333
-0.0146484	-0.0418091	-0.0564575
-0.0216675	-0.0411987	-0.0628662
-0.0271606	-0.0411987	-0.0683594
-0.0317383	-0.0411987	-0.072937
-0.0360107	-0.0408936	-0.0769043
-0.0402832	-0.039978	-0.0802612
-0.0436401	-0.0393677	-0.0830078
-0.0454712	-0.0390625	-0.0845337
-0.0460815	-0.0396729	-0.0857544
-0.0460815	-0.0405884	-0.0866699
-0.0454712	-0.0415039	-0.0869751
-0.0448608	-0.0418091	-0.0866699
-0.0445557	-0.0421143	-0.0866699
-0.0439453	-0.0421143	-0.0860596
-0.0430298	-0.0424194	-0.0854492
-0.0421143	-0.0424194	-0.0845337
-0.0418091	-0.0418091	-0.0836182
-0.0411987	-0.0415039	-0.0827026
-0.0411987	-0.0421143	-0.083313
-0.0418091	-0.0448608	-0.0866699
-0.0421143	-0.0512695	-0.0933838
-0.0418091	-0.0598145	-0.101624
-0.0402832	-0.0692749	-0.109558
-0.0372314	-0.0775146	-0.114746
-0.0320435	-0.085144	-0.117188
-0.0238037	-0.0921631	-0.115967
-0.0112915	-0.0976563	-0.108948
0.00701904	-0.0985718	-0.0915527
0.0308228	-0.090332	-0.0595093
0.0585938	-0.0671387	-0.00854492
0.0881958	-0.0262451	0.0619507
0.118103	0.0320435	0.150146
0.1474	0.10498	0.25238
0.174561	0.191345	0.365906
0.195618	0.291443	0.487061
0.206604	0.406799	0.613403
0.204773	0.534363	0.739136
0.190125	0.665588	0.855713
0.161743	0.786743	0.948486
0.12207	0.883789	1.00586
0.0735474	0.944214	1.01776
0.0192261	0.961609	0.980835
-0.0384521	0.933533	0.895081
-0.0961304	0.85968	0.76355
-0.1474	0.744019	0.596619
-0.186462	0.593872	0.40741
-0.210571	0.421448	0.210876
-0.219727	0.240784	0.0210571
-0.216064	0.0671387	-0.148926
-0.202026	-0.0863647	-0.288391
-0.179749	-0.20813	-0.387878
-0.152283	-0.291138	-0.44342
-0.123596	-0.333252	-0.456848
-0.0964355	-0.337524	-0.43396
-0.0735474	-0.31189	-0.385437
-0.0570679	-0.266724	-0.323792
-0.0473022	-0.213013	-0.260315
-0.043335	-0.160522	-0.203857
-0.0439453	-0.115051	-0.158997
-0.0479126	-0.0799561	-0.127869
-0.0527954	-0.0567627	-0.109558
-0.0576782	-0.0445557	-0.102234
-0.06073	-0.0411987	-0.101929
-0.062561	-0.0436401	-0.106201
-0.062561	-0.0494385	-0.112
-0.0613403	-0.0564575	-0.117798
-0.0601196	-0.062561	-0.122681
-0.0595093	-0.0665283	-0.126038
-0.0588989	-0.0683594	-0.127258
-0.0582886	-0.0689697	-0.127258
-0.0570679	-0.0683594	-0.125427
-0.055542	-0.0671387	-0.122681
-0.0537109	-0.065918	-0.119629
-0.0518799	-0.0650024	-0.116882
-0.050354	-0.0643921	-0.114746
-0.0485229	-0.0634766	-0.112
-0.0476074	-0.062561	-0.110168
-0.0466919	-0.0616455	-0.108337
-0.0460815	-0.06073	-0.106812
-0.0454712	-0.0595093	-0.10498
-0.045166	-0.0582886	-0.103455
-0.045166	-0.0567627	-0.101929
-0.0457764	-0.0546265	-0.100403
-0.0469971	-0.0527954	-0.0997925
-0.0473022	-0.0512695	-0.0985718
-0.0469971	-0.0500488	-0.0970459
-0.0463867	-0.0491333	-0.09552
-0.0457764	-0.0485229	-0.0942993
-0.0448608	-0.0476074	-0.0924683
-0.0439453	-0.0463867	-0.090332
-0.0427246	-0.0460815	-0.0888062
-0.0411987	-0.0460815	-0.0872803
-0.0393677	-0.0460815	-0.0854492
-0.0378418	-0.0463867	-0.0842285
-0.0369263	-0.0463867	-0.083313
-0.0366211	-0.0457764	-0.0823975
-0.0363159	-0.045166	-0.0814819
-0.0363159	-0.0442505	-0.0805664
-0.0363159	-0.043335	-0.0796509
-0.0363159	-0.043335	-0.0796509
-0.0357056	-0.043335	-0.0790405
-0.0354004	-0.043335	-0.0787354
-0.0354004	-0.0424194	-0.0778198
-0.0350952	-0.0421143	-0.0772095
-0.0335693	-0.0421143	-0.0756836
-0.0314331	-0.0427246	-0.0741577
-0.0289917	-0.043335	-0.0723267
-0.0268555	-0.0436401	-0.0704956
-0.0259399	-0.0430298	-0.0689697
-0.0262451	-0.0421143	-0.0683594
-0.0268555	-0.0405884	-0.0674438
-0.0265503	-0.0390625	-0.0656128
-0.0250244	-0.0384521	-0.0634766
-0.0231934	-0.038147	-0.0613403
-0.020752	-0.0384521	-0.0592041
-0.0189209	-0.0384521	-0.057373
-0.0170898	-0.038147	-0.0552368
-0.0146484	-0.0378418	-0.0524902
-0.0115967	-0.0378418	-0.0494385
-0.00793457	-0.0384521	-0.0463867
-0.00488281	-0.038147	-0.0430298
-0.00244141	-0.0372314	-0.0396729
-0.0012207	-0.0354004	-0.0366211
-0.0012207	-0.0326538	-0.0338745
-0.00183105	-0.0289917	-0.0308228
-0.00213623	-0.0256348	-0.027771
-0.000915527	-0.0234985	-0.0244141
0.0012207	-0.0216675	-0.0204468
0.00366211	-0.0204468	-0.0167847
0.00579834	-0.0195313	-0.0137329
0.00762939	-0.0186157	-0.0109863
0.0100708	-0.017395	-0.00732422
0.0131226	-0.0164795	-0.00335693
0.0167847	-0.0158691	0.000915527
0.0204468	-0.0146484	0.00579834
0.0238037	-0.0134277	0.010376
0.0271606	-0.0119019	0.0152588
0.0302124	-0.00976563	0.0204468
0.0326538	-0.00701904	0.0256348
0.0350952	-0.00427246	0.0308228
0.038147	-0.00183105	0.0363159
0.0408936	0.000610352	0.0415039
0.0430298	0.00274658	0.0457764
0.0445557	0.00488281	0.0494385
0.0463867	0.00610352	0.0524902
0.0485229	0.00732422	0.0558472
0.050354	0.00854492	0.0588989
0.0512695	0.0100708	0.0613403
0.0521851	0.0115967	0.0637817
0.0527954	0.0131226	0.065918
0.0534058	0.0143433	0.067749
0.0543213	0.015564	0.0698853
0.0558472	0.0167847	0.0726318
0.0567627	0.0183105	0.0750732
0.0570679	0.0201416	0.0772095
0.057373	0.0213623	0.0787354
0.0576782	0.0222778	0.0799561
0.0579834	0.0228882	0.0808716
0.0582886	0.0238037	0.0820923
0.0579834	0.0238037	0.0817871
0.0576782	0.0228882	0.0805664
0.0564575	0.0213623	0.0778198
0.0540161	0.0201416	0.0741577
0.0509644	0.0183105	0.0692749
0.0469971	0.0167847	0.0637817
0.0418091	0.0152588	0.0570679
0.0360107	0.0140381	0.0500488
0.0302124	0.0128174	0.0430298
0.0234985	0.012207	0.0357056
0.0161743	0.0115967	0.027771
0.00854492	0.0112915	0.0198364
0.00183105	0.0100708	0.0119019
-0.00335693	0.00762939	0.00427246
-0.00823975	0.00457764	-0.00366211
-0.0128174	0.00152588	-0.0112915
-0.0164795	-0.00152588	-0.0180054
-0.0195313	-0.00518799	-0.0247192
-0.0219727	-0.00915527	-0.0311279
-0.0241089	-0.0131226	-0.0372314
-0.0259399	-0.0167847	-0.0427246
-0.0268555	-0.020752	-0.0476074
-0.0274658	-0.0238037	-0.0512695
-0.0280762	-0.0259399	-0.0540161
-0.0283813	-0.0274658	-0.0558472
-0.0289917	-0.0283813	-0.057373
-0.0296021	-0.0289917	-0.0585938
-0.0302124	-0.0292969	-0.0595093
-0.0302124	-0.0299072	-0.0601196
-0.0305176	-0.0305176	-0.0610352
-0.0311279	-0.0308228	-0.0619507
-0.0326538	-0.0302124	-0.0628662
-0.03479	-0.0292969	-0.0640869
-0.0363159	-0.0280762	-0.0643921
-0.0372314	-0.0280762	-0.0653076
-0.0372314	-0.0286865	-0.065918
-0.0372314	-0.0292969	-0.0665283
-0.0378418	-0.0289917	-0.0668335
-0.0387573	-0.0280762	-0.0668335
-0.0393677	-0.027771	-0.0671387
-0.0390625	-0.027771	-0.0668335
-0.0375366	-0.0286865	-0.0662231
-0.0350952	-0.0299072	-0.0650024
-0.0335693	-0.0305176	-0.0640869
-0.0332642	-0.0302124	-0.0634766
-0.0332642	-0.0296021	-0.0628662
-0.0326538	-0.0292969	-0.0619507
-0.0314331	-0.0292969	-0.06073
-0.0302124	-0.0292969	-0.0595093
-0.0296021	-0.0283813	-0.0579834
-0.0299072	-0.0265503	-0.0564575
-0.0299072	-0.0244141	-0.0543213
-0.0302124	-0.022583	-0.0527954
-0.0311279	-0.0210571	-0.0521851
-0.0320435	-0.0195313	-0.0515747
-0.0326538	-0.0177002	-0.050354
-0.032959	-0.0161743	-0.0491333
-0.032959	-0.0152588	-0.0482178
-0.032959	-0.0146484	-0.0476074
-0.0326538	-0.0140381	-0.0466919
-0.0320435	-0.0137329	-0.0457764
-0.0317383	-0.0134277	-0.045166
-0.0311279	-0.0131226	-0.0442505
-0.0299072	-0.0128174	-0.0427246
-0.0283813	-0.0128174	-0.0411987
-0.0268555	-0.0128174	-0.0396729
-0.0259399	-0.0125122	-0.0384521
-0.0256348	-0.0119019	-0.0375366
-0.0253296	-0.0119019	-0.0372314
-0.0250244	-0.0119019	-0.0369263
-0.0250244	-0.0115967	-0.0366211
-0.0253296	-0.0112915	-0.0366211
-0.0259399	-0.0109863	-0.0369263
-0.0265503	-0.0106812	-0.0372314
-0.0268555	-0.0100708	-0.0369263
-0.0268555	-0.00946045	-0.0363159
-0.0265503	-0.00915527	-0.0357056
-0.0256348	-0.00915527	-0.03479
-0.0241089	-0.00946045	-0.0335693
-0.0219727	-0.0106812	-0.0326538
-0.0198364	-0.012207	-0.0320435
-0.0189209	-0.0131226	-0.0320435
-0.0183105	-0.0140381	-0.0323486
-0.017395	-0.015564	-0.032959
-0.0167847	-0.0167847	-0.0335693
-0.0170898	-0.0183105	-0.0354004
-0.0183105	-0.0189209	-0.0372314
-0.0198364	-0.0189209	-0.0387573
-0.0210571	-0.0189209	-0.039978
-0.0222778	-0.0186157	-0.0408936
-0.0238037	-0.0183105	-0.0421143
-0.0250244	-0.0177002	-0.0427246
-0.0256348	-0.0177002	-0.043335
-0.0256348	-0.0180054	-0.0436401
-0.0253296	-0.0183105	-0.0436401
-0.0247192	-0.0195313	-0.0442505
-0.0244141	-0.020752	-0.045166
-0.0247192	-0.0213623	-0.0460815
-0.0256348	-0.0216675	-0.0473022
-0.0268555	-0.0216675	-0.0485229
-0.027771	-0.0219727	-0.0497437
-0.0292969	-0.0219727	-0.0512695
-0.0308228	-0.0210571	-0.0518799
-0.0317383	-0.0198364	-0.0515747
-0.0320435	-0.0186157	-0.0506592
-0.0317383	-0.0167847	-0.0485229
-0.0317383	-0.0146484	-0.0463867
-0.0317383	-0.012207	-0.0439453
-0.0302124	-0.0100708	-0.0402832
-0.0283813	-0.00762939	-0.0360107
-0.0271606	-0.00488281	-0.0320435
-0.0259399	-0.00213623	-0.0280762
-0.0238037	0	-0.0238037
-0.0216675	0.00183105	-0.0198364
-0.0198364	0.00335693	-0.0164795
-0.0177002	0.00518799	-0.0125122
-0.015564	0.00732422	-0.00823975
-0.0140381	0.00976563	-0.00427246
-0.0128174	0.0125122	-0.000305176
-0.0112915	0.0140381	0.00274658
-0.00946045	0.0149536	0.00549316
-0.00762939	0.0152588	0.00762939
-0.00610352	0.015564	0.00946045
-0.00518799	0.015564	0.010376
-0.00396729	0.0152588	0.0112915
-0.0012207	0.0137329	0.0125122
0.00244141	0.0109863	0.0134277
0.00640869	0.00823975	0.0146484
0.010376	0.00579834	0.0161743
0.0146484	0.00396729	0.0186157
0.0201416	0.00213623	0.0222778
0.0250244	0.000610352	0.0256348
0.0292969	0.000305176	0.0296021
0.0326538	0.000305176	0.032959
0.0350952	0.000610352	0.0357056
0.0369263	0.000610352	0.0375366
0.0378418	-0.000305176	0.0375366
0.0369263	-0.00152588	0.0354004
0.0344849	-0.00305176	0.0314331
0.0314331	-0.00579834	0.0256348
0.0280762	-0.010376	0.0177002
0.0250244	-0.0158691	0.00915527
0.0213623	-0.0222778	-0.000915527
0.0170898	-0.0283813	-0.0112915
0.0119019	-0.0338745	-0.0219727
0.00610352	-0.0390625	-0.032959
0.000305176	-0.043335	-0.0430298
-0.00610352	-0.0466919	-0.0527954
-0.0128174	-0.0488281	-0.0616455
-0.0195313	-0.050354	-0.0698853
-0.0271606	-0.050354	-0.0775146
-0.0344849	-0.0494385	-0.0839233
-0.0411987	-0.0485229	-0.0897217
-0.0469971	-0.0473022	-0.0942993
-0.0515747	-0.0460815	-0.0976563
-0.0558472	-0.0448608	-0.100708
-0.0585938	-0.0442505	-0.102844
-0.0592041	-0.0448608	-0.104065
-0.0585938	-0.0463867	-0.10498
-0.057373	-0.0479126	-0.105286
-0.0546265	-0.0500488	-0.104675
-0.0512695	-0.0521851	-0.103455
-0.0491333	-0.0531006	-0.102234
-0.0479126	-0.0534058	-0.101318
-0.0460815	-0.0537109	-0.0997925
-0.0439453	-0.0549316	-0.098877
-0.0421143	-0.055542	-0.0976563
-0.0415039	-0.0558472	-0.0973511
-0.0421143	-0.055542	-0.0976563
-0.0442505	-0.0558472	-0.100098
-0.0466919	-0.0585938	-0.105286
-0.0482178	-0.0653076	-0.113525
-0.0479126	-0.0750732	-0.122986
-0.0463867	-0.085144	-0.131531
-0.0430298	-0.0942993	-0.137329
-0.0372314	-0.102844	-0.140076
-0.0274658	-0.110474	-0.137939
-0.0128174	-0.116272	-0.129089
0.00793457	-0.117798	-0.109863
0.03479	-0.110168	-0.0753784
0.0656128	-0.0872803	-0.0216675
0.0973511	-0.0460815	0.0512695
0.128784	0.0125122	0.141296
0.159302	0.0857544	0.245056
0.187378	0.172424	0.359802
0.209045	0.273438	0.482483
0.220032	0.389404	0.609436
0.218506	0.516968	0.735474
0.202942	0.647278	0.85022
0.173645	0.766602	0.940247
0.13092	0.860291	0.991211
0.0787354	0.917053	0.995789
0.0210571	0.930786	0.951843
-0.0390625	0.898438	0.859375
-0.0970459	0.820618	0.723572
-0.148315	0.701599	0.553284
-0.187988	0.550232	0.362244
-0.212708	0.378723	0.166016
-0.222168	0.200806	-0.0213623
-0.21759	0.0308228	-0.186768
-0.202026	-0.116882	-0.318909
-0.177917	-0.232239	-0.410156
-0.148621	-0.308533	-0.457153
-0.117798	-0.344238	-0.462036
-0.0894165	-0.342712	-0.432129
-0.067749	-0.31189	-0.379639
-0.0524902	-0.263062	-0.315552
-0.0430298	-0.207825	-0.250854
-0.0390625	-0.154724	-0.193787
-0.0396729	-0.109863	-0.149536
-0.0436401	-0.0756836	-0.119324
-0.0494385	-0.0531006	-0.102539
-0.0540161	-0.0418091	-0.0958252
-0.0564575	-0.0405884	-0.0970459
-0.0576782	-0.0454712	-0.103149
-0.0582886	-0.0527954	-0.111084
-0.0579834	-0.0604248	-0.118408
-0.0567627	-0.067749	-0.124512
-0.055542	-0.0732422	-0.128784
-0.0543213	-0.0765991	-0.13092
-0.0540161	-0.0775146	-0.131531
-0.0543213	-0.0762939	-0.130615
-0.0540161	-0.0741577	-0.128174
-0.0534058	-0.0717163	-0.125122
-0.0527954	-0.0692749	-0.12207
-0.0524902	-0.0668335	-0.119324
-0.0527954	-0.0640869	-0.116882
-0.0531006	-0.0616455	-0.114746
-0.0531006	-0.0598145	-0.112915
-0.0524902	-0.0582886	-0.110779
-0.0512695	-0.0579834	-0.109253
-0.050354	-0.0576782	-0.108032
-0.0494385	-0.0579834	-0.107422
-0.0482178	-0.0579834	-0.106201
-0.0463867	-0.0585938	-0.10498
-0.0442505	-0.0592041	-0.103455
-0.0424194	-0.0595093	-0.101929
-0.0408936	-0.0595093	-0.100403
-0.039978	-0.0592041	-0.0991821
-0.0396729	-0.0582886	-0.0979614
-0.039978	-0.0570679	-0.0970459
-0.039978	-0.055542	-0.09552
-0.039978	-0.0543213	-0.0942993
-0.0393677	-0.0537109	-0.0930786
-0.0387573	-0.0534058	-0.0921631
-0.038147	-0.0527954	-0.0909424
-0.0375366	-0.0518799	-0.0894165
-0.0369263	-0.0512695	-0.0881958
-0.0363159	-0.0509644	-0.0872803
-0.0354004	-0.0506592	-0.0860596
-0.0341797	-0.050354	-0.0845337
-0.0332642	-0.0500488	-0.083313
-0.0323486	-0.0497437	-0.0820923
-0.0314331	-0.0497437	-0.0811768
-0.0311279	-0.0494385	-0.0805664
-0.0311279	-0.0488281	-0.0799561
-0.0311279	-0.0482178	-0.0793457
-0.0311279	-0.0473022	-0.0784302
-0.0305176	-0.0466919	-0.0772095
-0.0296021	-0.0460815	-0.0756836
-0.027771	-0.045166	-0.072937
-0.0256348	-0.0448608	-0.0704956
-0.0231934	-0.0439453	-0.0671387
-0.0216675	-0.0427246	-0.0643921
-0.0201416	-0.0421143	-0.0622559
-0.0180054	-0.0418091	-0.0598145
-0.0143433	-0.0424194	-0.0567627
-0.0112915	-0.043335	-0.0546265
-0.00915527	-0.0439453	-0.0531006
-0.00854492	-0.0439453	-0.0524902
-0.00854492	-0.043335	-0.0518799
-0.00793457	-0.0427246	-0.0506592
-0.00732422	-0.0418091	-0.0491333
-0.00671387	-0.0408936	-0.0476074
-0.00579834	-0.0396729	-0.0454712
-0.00488281	-0.0378418	-0.0427246
-0.00366211	-0.0357056	-0.0393677
-0.00183105	-0.0338745	-0.0357056
0.000610352	-0.0320435	-0.0314331
0.00305176	-0.0302124	-0.0271606
0.00610352	-0.0286865	-0.022583
0.0088501	-0.0271606	-0.0183105
0.012207	-0.0259399	-0.0137329
0.015564	-0.0253296	-0.00976563
0.0183105	-0.0241089	-0.00579834
0.020752	-0.0228882	-0.00213623
0.0228882	-0.020752	0.00213623
0.0247192	-0.0183105	0.00640869
0.0268555	-0.0161743	0.0106812
0.0289917	-0.0143433	0.0146484
0.0305176	-0.012207	0.0183105
0.0320435	-0.00976563	0.0222778
0.032959	-0.00671387	0.0262451
0.0341797	-0.00396729	0.0302124
0.0360107	-0.00183105	0.0341797
0.038147	-0.000305176	0.0378418
0.0405884	0.0012207	0.0418091
0.0430298	0.00183105	0.0448608
0.0460815	0.00213623	0.0482178
0.0494385	0.00183105	0.0512695
0.0527954	0.0012207	0.0540161
0.0561523	0.0012207	0.057373
0.0588989	0.00152588	0.0604248
0.0613403	0.00213623	0.0634766
0.062561	0.00335693	0.065918
0.0631714	0.00488281	0.0680542
0.0637817	0.00610352	0.0698853
0.0643921	0.00671387	0.071106
0.0646973	0.00671387	0.0714111
0.0637817	0.00762939	0.0714111
0.06073	0.00976563	0.0704956
0.057373	0.0119019	0.0692749
0.0546265	0.0125122	0.0671387
0.0521851	0.0112915	0.0634766
0.0497437	0.0088501	0.0585938
0.0466919	0.00579834	0.0524902
0.0424194	0.00305176	0.0454712
0.0372314	0.000915527	0.038147
0.0314331	-0.00152588	0.0299072
0.0259399	-0.00396729	0.0219727
0.020752	-0.00671387	0.0140381
0.0158691	-0.00946045	0.00640869
0.0112915	-0.012207	-0.000915527
0.00610352	-0.0140381	-0.00793457
0.00152588	-0.0152588	-0.0137329
-0.00213623	-0.0164795	-0.0186157
-0.00457764	-0.0180054	-0.022583
-0.00732422	-0.0192261	-0.0265503
-0.0106812	-0.0204468	-0.0311279
-0.0137329	-0.0216675	-0.0354004
-0.0161743	-0.0234985	-0.0396729
-0.0186157	-0.0250244	-0.0436401
-0.020752	-0.0268555	-0.0476074
-0.0228882	-0.0286865	-0.0515747
-0.0259399	-0.0296021	-0.055542
-0.0292969	-0.0299072	-0.0592041
-0.0323486	-0.0302124	-0.062561
-0.0341797	-0.0308228	-0.0650024
-0.03479	-0.0317383	-0.0665283
-0.0350952	-0.0326538	-0.067749
-0.0354004	-0.0338745	-0.0692749
-0.0357056	-0.03479	-0.0704956
-0.0357056	-0.0360107	-0.0717163
-0.03479	-0.0375366	-0.0723267
-0.0338745	-0.0393677	-0.0732422
-0.0335693	-0.0405884	-0.0741577
-0.0335693	-0.0411987	-0.0747681
-0.0335693	-0.0415039	-0.0750732
-0.032959	-0.0421143	-0.0750732
-0.0323486	-0.0430298	-0.0753784
-0.0311279	-0.0439453	-0.0750732
-0.0299072	-0.0445557	-0.0744629
-0.0283813	-0.045166	-0.0735474
-0.0268555	-0.0457764	-0.0726318
-0.0259399	-0.0454712	-0.0714111
-0.0256348	-0.0448608	-0.0704956
-0.0259399	-0.0436401	-0.0695801
-0.0265503	-0.0424194	-0.0689697
-0.0265503	-0.0408936	-0.0674438
-0.0268555	-0.039978	-0.0668335
-0.0271606	-0.0387573	-0.065918
-0.0283813	-0.0372314	-0.0656128
-0.0296021	-0.0357056	-0.0653076
-0.0299072	-0.03479	-0.0646973
-0.0292969	-0.03479	-0.0640869
-0.0274658	-0.0360107	-0.0634766
-0.0247192	-0.0375366	-0.0622559
-0.0216675	-0.0393677	-0.0610352
-0.0192261	-0.0408936	-0.0601196
-0.0177002	-0.0415039	-0.0592041
-0.0158691	-0.0424194	-0.0582886
-0.0146484	-0.0427246	-0.057373
-0.0131226	-0.0427246	-0.0558472
-0.0115967	-0.0424194	-0.0540161
-0.0106812	-0.0415039	-0.0521851
-0.0106812	-0.039978	-0.0506592
-0.0109863	-0.0384521	-0.0494385
-0.0115967	-0.0366211	-0.0482178
-0.0128174	-0.0341797	-0.0469971
-0.0143433	-0.0314331	-0.0457764
-0.0164795	-0.0283813	-0.0448608
-0.0183105	-0.0262451	-0.0445557
-0.0198364	-0.0247192	-0.0445557
-0.0216675	-0.0234985	-0.045166
-0.0222778	-0.0231934	-0.0454712
-0.0219727	-0.0241089	-0.0460815
-0.0210571	-0.0259399	-0.0469971
-0.0198364	-0.027771	-0.0476074
-0.0183105	-0.0296021	-0.0479126
-0.0161743	-0.0317383	-0.0479126
-0.0143433	-0.0335693	-0.0479126
-0.0128174	-0.0350952	-0.0479126
-0.0112915	-0.0360107	-0.0473022
-0.00976563	-0.0360107	-0.0457764
-0.00946045	-0.0354004	-0.0448608
-0.0100708	-0.0341797	-0.0442505
-0.0112915	-0.0326538	-0.0439453
-0.012207	-0.0311279	-0.043335
-0.0131226	-0.0296021	-0.0427246
-0.0134277	-0.0280762	-0.0415039
-0.0137329	-0.0271606	-0.0408936
-0.0137329	-0.0271606	-0.0408936
-0.0134277	-0.0271606	-0.0405884
-0.0137329	-0.0271606	-0.0408936
-0.0146484	-0.0274658	-0.0421143
-0.015564	-0.0280762	-0.0436401
-0.015564	-0.0286865	-0.0442505
-0.0152588	-0.0299072	-0.045166
-0.0152588	-0.0314331	-0.0466919
-0.0146484	-0.0335693	-0.0482178
-0.0140381	-0.0357056	-0.0497437
-0.0131226	-0.0372314	-0.050354
-0.0119019	-0.0390625	-0.0509644
-0.0106812	-0.0405884	-0.0512695
-0.00946045	-0.0421143	-0.0515747
-0.0088501	-0.043335	-0.0521851
-0.00854492	-0.0439453	-0.0524902
-0.00854492	-0.0442505	-0.0527954
-0.00915527	-0.0436401	-0.0527954
-0.00946045	-0.0427246	-0.0521851
-0.0100708	-0.0411987	-0.0512695
-0.0109863	-0.0393677	-0.050354
-0.0119019	-0.0369263	-0.0488281
-0.0131226	-0.0338745	-0.0469971
-0.0149536	-0.0292969	-0.0442505
-0.0161743	-0.0250244	-0.0411987
-0.0158691	-0.0213623	-0.0372314
-0.015564	-0.0180054	-0.0335693
-0.0140381	-0.0158691	-0.0299072
-0.0115967	-0.0149536	-0.0265503
-0.00793457	-0.0152588	-0.0231934
-0.00427246	-0.0158691	-0.0201416
-0.000610352	-0.0164795	-0.0170898
0.00305176	-0.0170898	-0.0140381
0.00701904	-0.0177002	-0.0106812
0.0106812	-0.0177002	-0.00701904
0.0131226	-0.0167847	-0.00366211
0.0146484	-0.015564	-0.000915527
0.015564	-0.0140381	0.00152588
0.0158691	-0.0119019	0.00396729
0.0161743	-0.00976563	0.00640869
0.0170898	-0.00793457	0.00915527
0.0192261	-0.00640869	0.0128174
0.0222778	-0.00579834	0.0164795
0.0259399	-0.00610352	0.0198364
0.0305176	-0.00671387	0.0238037
0.0357056	-0.00823975	0.0274658
0.0411987	-0.00976563	0.0314331
0.0460815	-0.0106812	0.0354004
0.050354	-0.0119019	0.0384521
0.0540161	-0.0125122	0.0415039
0.0561523	-0.0125122	0.0436401
0.0576782	-0.0134277	0.0442505
0.0576782	-0.0143433	0.043335
0.055542	-0.015564	0.039978
0.0521851	-0.017395	0.03479
0.0485229	-0.0204468	0.0280762
0.045166	-0.0247192	0.0204468
0.0415039	-0.0302124	0.0112915
0.0372314	-0.0360107	0.0012207
0.0320435	-0.0424194	-0.010376
0.0265503	-0.0491333	-0.022583
0.0204468	-0.055542	-0.0350952
0.0146484	-0.0616455	-0.0469971
0.0088501	-0.0668335	-0.0579834
0.00244141	-0.0708008	-0.0683594
-0.00366211	-0.0735474	-0.0772095
-0.00946045	-0.0744629	-0.0839233
-0.0152588	-0.0744629	-0.0897217
-0.0204468	-0.0732422	-0.093689
-0.0250244	-0.0717163	-0.0967407
-0.0280762	-0.0704956	-0.0985718
-0.0302124	-0.0695801	-0.0997925
-0.0311279	-0.0695801	-0.100708
-0.0314331	-0.0698853	-0.101318
-0.0308228	-0.0708008	-0.101624
-0.0299072	-0.0717163	-0.101624
-0.0296021	-0.0723267	-0.101929
-0.0296021	-0.0720215	-0.101624
-0.0292969	-0.0714111	-0.100708
-0.0292969	-0.0701904	-0.0994873
-0.0308228	-0.0683594	-0.0991821
-0.032959	-0.0665283	-0.0994873
-0.0338745	-0.0653076	-0.0991821
-0.0341797	-0.0646973	-0.098877
-0.03479	-0.0643921	-0.0991821
-0.0357056	-0.065918	-0.101624
-0.0357056	-0.071106	-0.106812
-0.0332642	-0.0805664	-0.113831
-0.0292969	-0.0921631	-0.12146
-0.0250244	-0.102844	-0.127869
-0.0192261	-0.112	-0.131226
-0.012207	-0.119324	-0.131531
-0.00274658	-0.123596	-0.126343
0.010376	-0.124512	-0.114136
0.0286865	-0.119324	-0.0906372
0.0534058	-0.10437	-0.0509644
0.0827026	-0.0756836	0.00701904
0.113525	-0.0308228	0.0827026
0.144958	0.0280762	0.173035
0.175781	0.0991821	0.274963
0.204468	0.180969	0.385437
0.22583	0.275269	0.501099
0.235901	0.383301	0.619202
0.232239	0.501099	0.733337
0.213318	0.620422	0.83374
0.178528	0.728149	0.906677
0.130005	0.809937	0.939941
0.0723267	0.855713	0.92804
0.00946045	0.860901	0.870361
-0.0549316	0.825195	0.770264
-0.115356	0.749207	0.63385
-0.16571	0.635376	0.469666
-0.201416	0.491638	0.290222
-0.220642	0.328979	0.108337
-0.223694	0.161133	-0.062561
-0.212402	0.00213623	-0.210266
-0.190125	-0.135193	-0.325317
-0.160217	-0.241699	-0.401917
-0.127258	-0.311279	-0.438538
-0.0946045	-0.344543	-0.439148
-0.065918	-0.345459	-0.411377
-0.0427246	-0.321655	-0.36438
-0.0262451	-0.282288	-0.308533
-0.0170898	-0.235901	-0.252991
-0.0149536	-0.189819	-0.204773
-0.0177002	-0.148926	-0.166626
-0.0231934	-0.116577	-0.139771
-0.0292969	-0.093689	-0.122986
-0.0341797	-0.0802612	-0.114441
-0.0372314	-0.0741577	-0.111389
-0.0390625	-0.0732422	-0.112305
-0.0396729	-0.0747681	-0.114441
-0.0396729	-0.0775146	-0.117188
-0.039978	-0.0796509	-0.119629
-0.039978	-0.0814819	-0.12146
-0.0393677	-0.0830078	-0.122375
-0.038147	-0.0839233	-0.12207
-0.0360107	-0.0842285	-0.120239
-0.0338745	-0.0842285	-0.118103
-0.0320435	-0.0836182	-0.115662
-0.0305176	-0.0827026	-0.11322
-0.0283813	-0.0820923	-0.110474
-0.0262451	-0.0817871	-0.108032
-0.0244141	-0.0817871	-0.106201
-0.0228882	-0.0817871	-0.104675
-0.0219727	-0.0814819	-0.103455
-0.0210571	-0.0814819	-0.102539
-0.020752	-0.0811768	-0.101929
-0.0213623	-0.0802612	-0.101624
-0.0238037	-0.078125	-0.101929
-0.0262451	-0.0756836	-0.101929
-0.0271606	-0.0747681	-0.101929
-0.0259399	-0.0744629	-0.100403
-0.0241089	-0.0741577	-0.0982666
-0.0222778	-0.0744629	-0.0967407
-0.0216675	-0.0741577	-0.0958252
-0.0213623	-0.0738525	-0.0952148
-0.0204468	-0.0738525	-0.0942993
-0.0189209	-0.0741577	-0.0930786
-0.017395	-0.0744629	-0.0918579
-0.0158691	-0.0747681	-0.0906372
-0.0152588	-0.0744629	-0.0897217
-0.015564	-0.0735474	-0.0891113
-0.0161743	-0.0723267	-0.088501
-0.0167847	-0.071106	-0.0878906
-0.0167847	-0.0701904	-0.0869751
-0.0158691	-0.0695801	-0.0854492
-0.0152588	-0.0695801	-0.0848389
-0.0149536	-0.0692749	-0.0842285
-0.0146484	-0.0689697	-0.0836182
-0.0143433	-0.067749	-0.0820923
-0.0140381	-0.0662231	-0.0802612
-0.0137329	-0.0650024	-0.0787354
-0.0125122	-0.0643921	-0.0769043
-0.0106812	-0.0637817	-0.0744629
-0.0088501	-0.062561	-0.0714111
-0.00701904	-0.0610352	-0.0680542
-0.00488281	-0.0595093	-0.0643921
-0.00213623	-0.0582886	-0.0604248
0.000610352	-0.0576782	-0.0570679
0.00274658	-0.0564575	-0.0537109
0.00396729	-0.0552368	-0.0512695
0.00518799	-0.0540161	-0.0488281
0.00610352	-0.0524902	-0.0463867
0.00732422	-0.0512695	-0.0439453
0.00823975	-0.0506592	-0.0424194
0.00854492	-0.0494385	-0.0408936
0.0088501	-0.0476074	-0.0387573
0.0088501	-0.0454712	-0.0366211
0.00976563	-0.0436401	-0.0338745
0.0106812	-0.0424194	-0.0317383
0.0119019	-0.0411987	-0.0292969
0.0140381	-0.0402832	-0.0262451
0.0170898	-0.039978	-0.0228882
0.0204468	-0.0396729	-0.0192261
0.0238037	-0.0396729	-0.0158691
0.027771	-0.0396729	-0.0119019
0.0323486	-0.039978	-0.00762939
0.0369263	-0.0405884	-0.00366211
0.0411987	-0.039978	0.0012207
0.0448608	-0.0393677	0.00549316
0.0479126	-0.0378418	0.0100708
0.050354	-0.0363159	0.0140381
0.0521851	-0.0341797	0.0180054
0.0534058	-0.0314331	0.0219727
0.0549316	-0.0292969	0.0256348
0.0567627	-0.027771	0.0289917
0.0579834	-0.0262451	0.0317383
0.0588989	-0.0250244	0.0338745
0.0598145	-0.0241089	0.0357056
0.06073	-0.0228882	0.0378418
0.0616455	-0.0216675	0.039978
0.062561	-0.0198364	0.0427246
0.0637817	-0.0183105	0.0454712
0.0653076	-0.0164795	0.0488281
0.0668335	-0.0137329	0.0531006
0.0680542	-0.0106812	0.057373
0.0695801	-0.00793457	0.0616455
0.071106	-0.00549316	0.0656128
0.072937	-0.00305176	0.0698853
0.0753784	-0.0012207	0.0741577
0.0784302	-0.000305176	0.078125
0.0817871	-0.000610352	0.0811768
0.0845337	-0.00152588	0.0830078
0.085144	-0.00244141	0.0827026
0.0839233	-0.00366211	0.0802612
0.0808716	-0.00457764	0.0762939
0.0769043	-0.00488281	0.0720215
0.0726318	-0.00549316	0.0671387
0.0686646	-0.00610352	0.062561
0.0640869	-0.00701904	0.0570679
0.0582886	-0.00732422	0.0509644
0.0521851	-0.00732422	0.0448608
0.0460815	-0.00732422	0.0387573
0.0408936	-0.00823975	0.0326538
0.0366211	-0.00976563	0.0268555
0.0332642	-0.0112915	0.0219727
0.0299072	-0.0128174	0.0170898
0.0262451	-0.0140381	0.012207
0.0219727	-0.0158691	0.00610352
0.0177002	-0.0183105	-0.000610352
0.0137329	-0.020752	-0.00701904
0.00976563	-0.0231934	-0.0134277
0.00610352	-0.0247192	-0.0186157
0.00213623	-0.0256348	-0.0234985
-0.00213623	-0.0259399	-0.0280762
-0.00701904	-0.0262451	-0.0332642
-0.0115967	-0.0265503	-0.038147
-0.0152588	-0.0265503	-0.0418091
-0.0177002	-0.0271606	-0.0448608
-0.0192261	-0.027771	-0.0469971
-0.0204468	-0.0286865	-0.0491333
-0.0219727	-0.0292969	-0.0512695
-0.0231934	-0.0299072	-0.0531006
-0.0238037	-0.0302124	-0.0540161
-0.0234985	-0.0311279	-0.0546265
-0.0228882	-0.0326538	-0.055542
-0.0222778	-0.0341797	-0.0564575
-0.0219727	-0.0354004	-0.057373
-0.0213623	-0.0369263	-0.0582886
-0.020752	-0.038147	-0.0588989
-0.020752	-0.0390625	-0.0598145
-0.0210571	-0.0396729	-0.06073
-0.0216675	-0.039978	-0.0616455
-0.022583	-0.0402832	-0.0628662
-0.0231934	-0.0402832	-0.0634766
-0.0231934	-0.0405884	-0.0637817
-0.0228882	-0.0408936	-0.0637817
-0.022583	-0.0405884	-0.0631714
-0.022583	-0.0396729	-0.0622559
-0.0222778	-0.0390625	-0.0613403
-0.0213623	-0.0387573	-0.0601196
-0.020752	-0.0387573	-0.0595093
-0.0201416	-0.0390625	-0.0592041
-0.0201416	-0.0384521	-0.0585938
-0.020752	-0.0369263	-0.0576782
-0.0210571	-0.0350952	-0.0561523
-0.0204468	-0.0341797	-0.0546265
-0.0198364	-0.0335693	-0.0534058
-0.0198364	-0.0323486	-0.0521851
-0.0204468	-0.0308228	-0.0512695
-0.0213623	-0.0289917	-0.050354
-0.0219727	-0.027771	-0.0497437
-0.0216675	-0.0268555	-0.0485229
-0.020752	-0.0262451	-0.0469971
-0.0204468	-0.0256348	-0.0460815
-0.020752	-0.0250244	-0.0457764
-0.0216675	-0.0238037	-0.0454712
-0.0219727	-0.022583	-0.0445557
-0.0213623	-0.0213623	-0.0427246
-0.0201416	-0.0201416	-0.0402832
-0.0183105	-0.0192261	-0.0375366
-0.0158691	-0.0189209	-0.03479
-0.0131226	-0.0189209	-0.0320435
-0.010376	-0.0192261	-0.0296021
-0.00793457	-0.0198364	-0.027771
-0.00579834	-0.0210571	-0.0268555
-0.00427246	-0.0219727	-0.0262451
-0.00396729	-0.0228882	-0.0268555
-0.00457764	-0.0231934	-0.027771
-0.00610352	-0.0234985	-0.0296021
-0.00793457	-0.0234985	-0.0314331
-0.00976563	-0.0228882	-0.0326538
-0.0112915	-0.0216675	-0.032959
-0.012207	-0.020752	-0.032959
-0.0125122	-0.0198364	-0.0323486
-0.012207	-0.0189209	-0.0311279
-0.0112915	-0.0180054	-0.0292969
-0.00976563	-0.017395	-0.0271606
-0.00823975	-0.0167847	-0.0250244
-0.00701904	-0.0167847	-0.0238037
-0.00549316	-0.017395	-0.0228882
-0.00427246	-0.0180054	-0.0222778
-0.00366211	-0.0180054	-0.0216675
-0.00305176	-0.0180054	-0.0210571
-0.00244141	-0.0183105	-0.020752
-0.0012207	-0.0189209	-0.0201416
-0.000610352	-0.0195313	-0.0201416
-0.000915527	-0.0201416	-0.0210571
-0.00213623	-0.0204468	-0.022583
-0.00305176	-0.020752	-0.0238037
-0.00427246	-0.0213623	-0.0256348
-0.00549316	-0.0219727	-0.0274658
-0.00762939	-0.0219727	-0.0296021
-0.0100708	-0.0219727	-0.0320435
-0.012207	-0.022583	-0.03479
-0.0140381	-0.0238037	-0.0378418
-0.015564	-0.0244141	-0.039978
-0.0164795	-0.0253296	-0.0418091
-0.0158691	-0.0265503	-0.0424194
-0.0146484	-0.027771	-0.0424194
-0.0131226	-0.0289917	-0.0421143
-0.012207	-0.0299072	-0.0421143
-0.0115967	-0.0305176	-0.0421143
-0.0106812	-0.0314331	-0.0421143
-0.0106812	-0.0314331	-0.0421143
-0.0119019	-0.0302124	-0.0421143
-0.0128174	-0.0289917	-0.0418091
-0.0131226	-0.0280762	-0.0411987
-0.0134277	-0.0274658	-0.0408936
-0.0140381	-0.0262451	-0.0402832
-0.0143433	-0.0247192	-0.0390625
-0.0140381	-0.0234985	-0.0375366
-0.0134277	-0.0228882	-0.0363159
-0.0134277	-0.0210571	-0.0344849
-0.0134277	-0.0189209	-0.0323486
-0.0128174	-0.0177002	-0.0305176
-0.0109863	-0.0170898	-0.0280762
-0.00946045	-0.0161743	-0.0256348
-0.00823975	-0.0149536	-0.0231934
-0.00762939	-0.0134277	-0.0210571
-0.00640869	-0.0115967	-0.0180054
-0.00518799	-0.010376	-0.015564
-0.00335693	-0.0088501	-0.012207
-0.00183105	-0.00701904	-0.0088501
0.000305176	-0.00518799	-0.00488281
0.00305176	-0.00305176	0
0.00579834	-0.0012207	0.00457764
0.00762939	0.000915527	0.00854492
0.00854492	0.00305176	0.0115967
0.0088501	0.00549316	0.0143433
0.00976563	0.00732422	0.0170898
0.0115967	0.00854492	0.0201416
0.0137329	0.00946045	0.0231934
0.0161743	0.00946045	0.0256348
0.0189209	0.00946045	0.0283813
0.022583	0.0088501	0.0314331
0.0268555	0.00762939	0.0344849
0.0311279	0.00610352	0.0372314
0.03479	0.00457764	0.0393677
0.0375366	0.00335693	0.0408936
0.0402832	0.00213623	0.0424194
0.0427246	0.000915527	0.0436401
0.0442505	-0.000915527	0.043335
0.045166	-0.00335693	0.0418091
0.0448608	-0.00518799	0.0396729
0.043335	-0.00732422	0.0360107
0.0415039	-0.0100708	0.0314331
0.0390625	-0.0137329	0.0253296
0.0369263	-0.0183105	0.0186157
0.0341797	-0.0231934	0.0109863
0.0302124	-0.0280762	0.00213623
0.0259399	-0.0326538	-0.00671387
0.0204468	-0.0369263	-0.0164795
0.0140381	-0.039978	-0.0259399
0.00732422	-0.0421143	-0.03479
0	-0.043335	-0.043335
-0.00701904	-0.0439453	-0.0509644
-0.0137329	-0.0442505	-0.0579834
-0.0192261	-0.0445557	-0.0637817
-0.0241089	-0.0445557	-0.0686646
-0.0271606	-0.045166	-0.0723267
-0.0286865	-0.0463867	-0.0750732
-0.0286865	-0.0479126	-0.0765991
-0.0280762	-0.0494385	-0.0775146
-0.027771	-0.0509644	-0.0787354
-0.0274658	-0.0527954	-0.0802612
-0.0268555	-0.0543213	-0.0811768
-0.0265503	-0.0549316	-0.0814819
-0.0268555	-0.0546265	-0.0814819
-0.027771	-0.0537109	-0.0814819
-0.0286865	-0.0518799	-0.0805664
-0.0296021	-0.050354	-0.0799561
-0.0302124	-0.0488281	-0.0790405
-0.0311279	-0.0476074	-0.0787354
-0.0317383	-0.0469971	-0.0787354
-0.0320435	-0.0466919	-0.0787354
-0.0323486	-0.0473022	-0.0796509
-0.0326538	-0.0491333	-0.0817871
-0.0326538	-0.0534058	-0.0860596
-0.0320435	-0.0601196	-0.0921631
-0.0314331	-0.0686646	-0.100098
-0.0302124	-0.0772095	-0.107422
-0.027771	-0.0842285	-0.112
-0.0231934	-0.0897217	-0.112915
-0.0161743	-0.0927734	-0.108948
-0.00579834	-0.0939941	-0.0997925
0.00976563	-0.0912476	-0.0814819
0.0317383	-0.0811768	-0.0494385
0.0595093	-0.0595093	0
0.0909424	-0.0241089	0.0668335
0.123596	0.0253296	0.148926
0.156555	0.0857544	0.24231
0.187988	0.154724	0.342712
0.214539	0.233459	0.447998
0.231934	0.324402	0.556335
0.237427	0.426025	0.663452
0.229187	0.533752	0.762939
0.205078	0.636292	0.84137
0.1651	0.72113	0.88623
0.11261	0.777283	0.889893
0.0521851	0.798645	0.85083
-0.0115967	0.782776	0.771179
-0.0744629	0.72998	0.655518
-0.131531	0.6427	0.511169
-0.178223	0.525818	0.347595
-0.210571	0.386658	0.176086
-0.226746	0.235291	0.00854492
-0.22644	0.0839233	-0.142517
-0.212402	-0.0543213	-0.266724
-0.188599	-0.167542	-0.35614
-0.159607	-0.249329	-0.408936
-0.128784	-0.297546	-0.426331
-0.098877	-0.314636	-0.413513
-0.0723267	-0.306396	-0.378723
-0.0518799	-0.278931	-0.330811
-0.0387573	-0.239868	-0.278625
-0.0326538	-0.197144	-0.229797
-0.0314331	-0.15686	-0.188293
-0.0335693	-0.122986	-0.156555
-0.0375366	-0.0967407	-0.134277
-0.0415039	-0.0787354	-0.120239
-0.0445557	-0.0671387	-0.111694
-0.0463867	-0.0613403	-0.107727
-0.0460815	-0.0592041	-0.105286
-0.045166	-0.0598145	-0.10498
-0.0439453	-0.0610352	-0.10498
-0.0427246	-0.062561	-0.105286
-0.0415039	-0.0640869	-0.105591
-0.0408936	-0.0650024	-0.105896
-0.0402832	-0.0656128	-0.105896
-0.039978	-0.0653076	-0.105286
-0.0402832	-0.0640869	-0.10437
-0.0402832	-0.0631714	-0.103455
-0.0402832	-0.0616455	-0.101929
-0.0396729	-0.06073	-0.100403
-0.0393677	-0.0595093	-0.098877
-0.038147	-0.0585938	-0.0967407
-0.0366211	-0.0579834	-0.0946045
-0.0354004	-0.0576782	-0.0930786
-0.0344849	-0.0570679	-0.0915527
-0.0338745	-0.0561523	-0.0900269
-0.0332642	-0.055542	-0.0888062
-0.0320435	-0.055542	-0.0875854
-0.0308228	-0.055542	-0.0863647
-0.0305176	-0.0552368	-0.0857544
-0.0311279	-0.0543213	-0.0854492
-0.0317383	-0.0531006	-0.0848389
-0.0320435	-0.0521851	-0.0842285
-0.0320435	-0.0515747	-0.0836182
-0.0314331	-0.0509644	-0.0823975
-0.0308228	-0.0506592	-0.0814819
-0.0296021	-0.0509644	-0.0805664
-0.0283813	-0.0509644	-0.0793457
-0.027771	-0.0506592	-0.0784302
-0.0268555	-0.0506592	-0.0775146
-0.0259399	-0.0512695	-0.0772095
-0.0256348	-0.0518799	-0.0775146
-0.0250244	-0.0524902	-0.0775146
-0.0241089	-0.0527954	-0.0769043
-0.0234985	-0.0527954	-0.0762939
-0.022583	-0.0524902	-0.0750732
-0.0216675	-0.0518799	-0.0735474
-0.0195313	-0.0521851	-0.0717163
-0.0170898	-0.0524902	-0.0695801
-0.0149536	-0.0524902	-0.0674438
-0.0143433	-0.0518799	-0.0662231
-0.0140381	-0.0509644	-0.0650024
-0.0134277	-0.0500488	-0.0634766
-0.0131226	-0.0494385	-0.062561
-0.0131226	-0.0488281	-0.0619507
-0.0137329	-0.0479126	-0.0616455
-0.0149536	-0.0466919	-0.0616455
-0.0164795	-0.0445557	-0.0610352
-0.0177002	-0.0421143	-0.0598145
-0.0180054	-0.039978	-0.0579834
-0.0170898	-0.0384521	-0.055542
-0.0143433	-0.038147	-0.0524902
-0.010376	-0.0390625	-0.0494385
-0.00610352	-0.0396729	-0.0457764
-0.00213623	-0.039978	-0.0421143
0.0012207	-0.039978	-0.0387573
0.00396729	-0.0396729	-0.0357056
0.00671387	-0.0393677	-0.0326538
0.00976563	-0.0393677	-0.0296021
0.0128174	-0.0387573	-0.0259399
0.0152588	-0.038147	-0.0228882
0.017395	-0.0369263	-0.0195313
0.0192261	-0.0350952	-0.0158691
0.0213623	-0.0332642	-0.0119019
0.0234985	-0.0317383	-0.00823975
0.0259399	-0.0302124	-0.00427246
0.0283813	-0.0289917	-0.000610352
0.0311279	-0.0280762	0.00305176
0.0338745	-0.0271606	0.00671387
0.0360107	-0.0256348	0.010376
0.0384521	-0.0241089	0.0143433
0.0405884	-0.022583	0.0180054
0.0424194	-0.0213623	0.0210571
0.0445557	-0.0195313	0.0250244
0.0466919	-0.0170898	0.0296021
0.0491333	-0.0146484	0.0344849
0.0521851	-0.012207	0.039978
0.0558472	-0.0106812	0.045166
0.0592041	-0.0088501	0.050354
0.0622559	-0.00701904	0.0552368
0.0650024	-0.00549316	0.0595093
0.0680542	-0.00457764	0.0634766
0.0701904	-0.00366211	0.0665283
0.0720215	-0.00305176	0.0689697
0.0735474	-0.00244141	0.071106
0.0744629	-0.0012207	0.0732422
0.0744629	0.000610352	0.0750732
0.0744629	0.00244141	0.0769043
0.0750732	0.00335693	0.0784302
0.0759888	0.00366211	0.0796509
0.0765991	0.00396729	0.0805664
0.0765991	0.00427246	0.0808716
0.0762939	0.00457764	0.0808716
0.0756836	0.00457764	0.0802612
0.0747681	0.00427246	0.0790405
0.0732422	0.00335693	0.0765991
0.0708008	0.00274658	0.0735474
0.0674438	0.00183105	0.0692749
0.062561	0.0012207	0.0637817
0.0570679	0.00152588	0.0585938
0.050354	0.00274658	0.0531006
0.0442505	0.00335693	0.0476074
0.0384521	0.00335693	0.0418091
0.0332642	0.00305176	0.0363159
0.0280762	0.00244141	0.0305176
0.0231934	0.0012207	0.0244141
0.0192261	-0.000305176	0.0189209
0.0161743	-0.00274658	0.0134277
0.0131226	-0.00549316	0.00762939
0.00915527	-0.00793457	0.0012207
0.00488281	-0.010376	-0.00549316
0.000610352	-0.0128174	-0.012207
-0.00396729	-0.0152588	-0.0192261
-0.00793457	-0.017395	-0.0253296
-0.0115967	-0.0189209	-0.0305176
-0.0152588	-0.0201416	-0.0354004
-0.0192261	-0.020752	-0.039978
-0.0231934	-0.0210571	-0.0442505
-0.0259399	-0.0213623	-0.0473022
-0.0274658	-0.0216675	-0.0491333
-0.027771	-0.0222778	-0.0500488
-0.0280762	-0.0231934	-0.0512695
-0.0286865	-0.0234985	-0.0521851
-0.0302124	-0.0238037	-0.0540161
-0.0317383	-0.0238037	-0.055542
-0.032959	-0.0244141	-0.057373
-0.0332642	-0.0253296	-0.0585938
-0.032959	-0.0265503	-0.0595093
-0.0332642	-0.0274658	-0.06073
-0.0338745	-0.0274658	-0.0613403
-0.0341797	-0.0271606	-0.0613403
-0.0338745	-0.0271606	-0.0610352
-0.0326538	-0.0271606	-0.0598145
-0.0311279	-0.0274658	-0.0585938
-0.0296021	-0.0280762	-0.0576782
-0.0286865	-0.027771	-0.0564575
-0.0286865	-0.0271606	-0.0558472
-0.0292969	-0.0259399	-0.0552368
-0.0296021	-0.0253296	-0.0549316
-0.0296021	-0.0253296	-0.0549316
-0.0292969	-0.0253296	-0.0546265
-0.0296021	-0.0253296	-0.0549316
-0.0302124	-0.0244141	-0.0546265
-0.0308228	-0.0234985	-0.0543213
-0.0308228	-0.0222778	-0.0531006
-0.0302124	-0.0210571	-0.0512695
-0.0292969	-0.0204468	-0.0497437
-0.0280762	-0.0201416	-0.0482178
-0.0265503	-0.0198364	-0.0463867
-0.0256348	-0.0189209	-0.0445557
-0.0250244	-0.0177002	-0.0427246
-0.0247192	-0.0161743	-0.0408936
-0.0244141	-0.0152588	-0.0396729
-0.0244141	-0.0146484	-0.0390625
-0.0247192	-0.0143433	-0.0390625
-0.0244141	-0.0143433	-0.0387573
-0.0238037	-0.0137329	-0.0375366
-0.022583	-0.0134277	-0.0360107
-0.020752	-0.0134277	-0.0341797
-0.0186157	-0.0140381	-0.0326538
-0.0167847	-0.0140381	-0.0308228
-0.0143433	-0.0140381	-0.0283813
-0.0119019	-0.0140381	-0.0259399
-0.00976563	-0.0137329	-0.0234985
-0.00762939	-0.0131226	-0.020752
-0.00640869	-0.0125122	-0.0189209
-0.00579834	-0.0112915	-0.0170898
-0.00579834	-0.0100708	-0.0158691
-0.00671387	-0.00915527	-0.0158691
-0.00762939	-0.00793457	-0.015564
-0.0088501	-0.00732422	-0.0161743
-0.0100708	-0.00671387	-0.0167847
-0.0119019	-0.00579834	-0.0177002
-0.0143433	-0.00488281	-0.0192261
-0.0161743	-0.00396729	-0.0201416
-0.0180054	-0.00305176	-0.0210571
-0.0192261	-0.00244141	-0.0216675
-0.0192261	-0.00244141	-0.0216675
-0.0189209	-0.00305176	-0.0219727
-0.0183105	-0.00366211	-0.0219727
-0.017395	-0.00396729	-0.0213623
-0.0167847	-0.00396729	-0.020752
-0.015564	-0.00427246	-0.0198364
-0.0140381	-0.00488281	-0.0189209
-0.0134277	-0.00518799	-0.0186157
-0.0134277	-0.00457764	-0.0180054
-0.0140381	-0.00366211	-0.0177002
-0.0152588	-0.00274658	-0.0180054
-0.0164795	-0.00213623	-0.0186157
-0.0177002	-0.00183105	-0.0195313
-0.0192261	-0.0012207	-0.0204468
-0.020752	-0.000610352	-0.0213623
-0.022583	-0.000610352	-0.0231934
-0.0234985	-0.0012207	-0.0247192
-0.0238037	-0.00244141	-0.0262451
-0.0238037	-0.00457764	-0.0283813
-0.0234985	-0.00610352	-0.0296021
-0.0241089	-0.00732422	-0.0314331
-0.0247192	-0.00793457	-0.0326538
-0.0259399	-0.00823975	-0.0341797
-0.0271606	-0.00823975	-0.0354004
-0.027771	-0.00823975	-0.0360107
-0.0283813	-0.00793457	-0.0363159
-0.0292969	-0.00732422	-0.0366211
-0.0299072	-0.00701904	-0.0369263
-0.0299072	-0.00732422	-0.0372314
-0.0292969	-0.00793457	-0.0372314
-0.0283813	-0.00854492	-0.0369263
-0.0280762	-0.00946045	-0.0375366
-0.027771	-0.0100708	-0.0378418
-0.0271606	-0.0106812	-0.0378418
-0.0265503	-0.0119019	-0.0384521
-0.0253296	-0.0131226	-0.0384521
-0.0247192	-0.0137329	-0.0384521
-0.0247192	-0.0134277	-0.038147
-0.0256348	-0.0125122	-0.038147
-0.0268555	-0.0109863	-0.0378418
-0.027771	-0.0100708	-0.0378418
-0.0286865	-0.00915527	-0.0378418
-0.0289917	-0.00854492	-0.0375366
-0.0296021	-0.00793457	-0.0375366
-0.0299072	-0.00762939	-0.0375366
-0.0302124	-0.00762939	-0.0378418
-0.0305176	-0.00762939	-0.038147
-0.0311279	-0.00762939	-0.0387573
-0.0317383	-0.00793457	-0.0396729
-0.0320435	-0.00762939	-0.0396729
-0.0323486	-0.00640869	-0.0387573
-0.032959	-0.00488281	-0.0378418
-0.0332642	-0.00305176	-0.0363159
-0.0335693	-0.00152588	-0.0350952
-0.0335693	0.000305176	-0.0332642
-0.0338745	0.00305176	-0.0308228
-0.0341797	0.00701904	-0.0271606
-0.0341797	0.0106812	-0.0234985
-0.0335693	0.0140381	-0.0195313
-0.0326538	0.0170898	-0.015564
-0.0314331	0.0195313	-0.0119019
-0.0299072	0.0219727	-0.00793457
-0.0283813	0.0241089	-0.00427246
-0.0268555	0.0262451	-0.000610352
-0.0253296	0.0286865	0.00335693
-0.0241089	0.0311279	0.00701904
-0.022583	0.032959	0.010376
-0.0210571	0.0341797	0.0131226
-0.0186157	0.0344849	0.0158691
-0.0158691	0.0341797	0.0183105
-0.0131226	0.0338745	0.020752
-0.00946045	0.0326538	0.0231934
-0.00518799	0.0308228	0.0256348
-0.000610352	0.0286865	0.0280762
0.00427246	0.0268555	0.0311279
0.00854492	0.0253296	0.0338745
0.0131226	0.0234985	0.0366211
0.0177002	0.0216675	0.0393677
0.0216675	0.0204468	0.0421143
0.0241089	0.0201416	0.0442505
0.0244141	0.020752	0.045166
0.0241089	0.0213623	0.0454712
0.0234985	0.0210571	0.0445557
0.022583	0.0201416	0.0427246
0.0210571	0.0189209	0.039978
0.0189209	0.0167847	0.0357056
0.0158691	0.0140381	0.0299072
0.0128174	0.0106812	0.0234985
0.0100708	0.00640869	0.0164795
0.00732422	0.00213623	0.00946045
0.00366211	-0.0012207	0.00244141
0	-0.00488281	-0.00488281
-0.00366211	-0.0088501	-0.0125122
-0.00732422	-0.0128174	-0.0201416
-0.0112915	-0.0164795	-0.027771
-0.0152588	-0.0192261	-0.0344849
-0.0204468	-0.0210571	-0.0415039
-0.0265503	-0.0219727	-0.0485229
-0.0326538	-0.022583	-0.0552368
-0.038147	-0.0238037	-0.0619507
-0.0424194	-0.0253296	-0.067749
-0.0463867	-0.0265503	-0.072937
-0.0500488	-0.0271606	-0.0772095
-0.0537109	-0.0271606	-0.0808716
-0.0567627	-0.0268555	-0.0836182
-0.0592041	-0.0268555	-0.0860596
-0.0598145	-0.0271606	-0.0869751
-0.0592041	-0.0280762	-0.0872803
-0.0579834	-0.0289917	-0.0869751
-0.0567627	-0.0292969	-0.0860596
-0.0549316	-0.0292969	-0.0842285
-0.0534058	-0.0292969	-0.0827026
-0.0521851	-0.0292969	-0.0814819
-0.0512695	-0.0289917	-0.0802612
-0.0509644	-0.0286865	-0.0796509
-0.0509644	-0.0283813	-0.0793457
-0.0515747	-0.0289917	-0.0805664
-0.0524902	-0.0311279	-0.0836182
-0.0537109	-0.0357056	-0.0894165
-0.0552368	-0.0421143	-0.0973511
-0.0561523	-0.0491333	-0.105286
-0.0561523	-0.0552368	-0.111389
-0.0534058	-0.0604248	-0.113831
-0.0476074	-0.0646973	-0.112305
-0.0378418	-0.0680542	-0.105896
-0.0231934	-0.0689697	-0.0921631
-0.00213623	-0.0643921	-0.0665283
0.0253296	-0.0494385	-0.0241089
0.0576782	-0.0210571	0.0366211
0.0918579	0.0216675	0.113525
0.126343	0.0772095	0.203552
0.159912	0.143433	0.303345
0.190125	0.220032	0.410156
0.213013	0.309143	0.522156
0.223389	0.410767	0.634155
0.219727	0.52124	0.740967
0.201111	0.630188	0.831299
0.167847	0.723877	0.891724
0.121765	0.791016	0.912781
0.0671387	0.823364	0.890503
0.00610352	0.817871	0.823975
-0.0579834	0.774231	0.716248
-0.118713	0.691833	0.57312
-0.169373	0.575256	0.405884
-0.206604	0.43335	0.226746
-0.228577	0.278015	0.0494385
-0.235596	0.121765	-0.113831
-0.229492	-0.0222778	-0.25177
-0.212708	-0.143433	-0.35614
-0.188293	-0.233459	-0.421753
-0.159302	-0.288086	-0.447388
-0.128784	-0.308838	-0.437622
-0.101318	-0.299072	-0.400391
-0.0793457	-0.266724	-0.346069
-0.0637817	-0.221558	-0.285339
-0.0540161	-0.17334	-0.227356
-0.0500488	-0.128174	-0.178223
-0.0509644	-0.0900269	-0.140991
-0.0546265	-0.0613403	-0.115967
-0.0592041	-0.0421143	-0.101318
-0.0637817	-0.0317383	-0.09552
-0.0674438	-0.0280762	-0.09552
-0.0698853	-0.0283813	-0.0982666
-0.0708008	-0.0311279	-0.101929
-0.0701904	-0.03479	-0.10498
-0.0689697	-0.0387573	-0.107727
-0.067749	-0.0415039	-0.109253
-0.0665283	-0.0430298	-0.109558
-0.0653076	-0.0430298	-0.108337
-0.0640869	-0.0421143	-0.106201
-0.062561	-0.0411987	-0.10376
-0.0610352	-0.039978	-0.101013
-0.0604248	-0.0384521	-0.098877
-0.0604248	-0.0369263	-0.0973511
-0.06073	-0.0350952	-0.0958252
-0.06073	-0.0335693	-0.0942993
-0.0610352	-0.0320435	-0.0930786
-0.0619507	-0.0305176	-0.0924683
-0.0622559	-0.0296021	-0.0918579
-0.0616455	-0.0289917	-0.0906372
-0.0610352	-0.0286865	-0.0897217
-0.06073	-0.0280762	-0.0888062
-0.0604248	-0.0274658	-0.0878906
-0.0601196	-0.0268555	-0.0869751
-0.0598145	-0.0265503	-0.0863647
-0.0592041	-0.0262451	-0.0854492
-0.0595093	-0.0253296	-0.0848389
-0.0592041	-0.0244141	-0.0836182
-0.0579834	-0.0238037	-0.0817871
-0.0564575	-0.0234985	-0.0799561
-0.0546265	-0.0231934	-0.0778198
-0.0531006	-0.0228882	-0.0759888
-0.0506592	-0.0234985	-0.0741577
-0.0476074	-0.0247192	-0.0723267
-0.0448608	-0.0256348	-0.0704956
-0.0427246	-0.0259399	-0.0686646
-0.0415039	-0.0256348	-0.0671387
-0.0405884	-0.0250244	-0.0656128
-0.039978	-0.0244141	-0.0643921
-0.0390625	-0.0241089	-0.0631714
-0.0378418	-0.0234985	-0.0613403
-0.0366211	-0.022583	-0.0592041
-0.0363159	-0.0213623	-0.0576782
-0.0369263	-0.0198364	-0.0567627
-0.038147	-0.0183105	-0.0564575
-0.0387573	-0.017395	-0.0561523
-0.0384521	-0.0170898	-0.055542
-0.0375366	-0.0170898	-0.0546265
-0.0366211	-0.0167847	-0.0534058
-0.0363159	-0.0161743	-0.0524902
-0.0363159	-0.0152588	-0.0515747
-0.0360107	-0.0140381	-0.0500488
-0.03479	-0.0128174	-0.0476074
-0.032959	-0.0112915	-0.0442505
-0.0308228	-0.010376	-0.0411987
-0.027771	-0.00976563	-0.0375366
-0.0250244	-0.00915527	-0.0341797
-0.022583	-0.00854492	-0.0311279
-0.020752	-0.00823975	-0.0289917
-0.0189209	-0.00793457	-0.0268555
-0.017395	-0.00732422	-0.0247192
-0.0161743	-0.00640869	-0.022583
-0.0149536	-0.00518799	-0.0201416
-0.0137329	-0.00396729	-0.0177002
-0.0115967	-0.00274658	-0.0143433
-0.00946045	-0.0012207	-0.0106812
-0.00762939	0.000915527	-0.00671387
-0.00579834	0.00335693	-0.00244141
-0.00305176	0.00549316	0.00244141
0.000305176	0.00762939	0.00793457
0.00366211	0.00976563	0.0134277
0.00671387	0.0119019	0.0186157
0.00946045	0.0140381	0.0234985
0.0125122	0.0164795	0.0289917
0.0158691	0.0186157	0.0344849
0.0186157	0.0210571	0.0396729
0.0210571	0.0238037	0.0448608
0.0234985	0.0262451	0.0497437
0.0262451	0.0283813	0.0546265
0.0292969	0.0302124	0.0595093
0.032959	0.0311279	0.0640869
0.0369263	0.0320435	0.0689697
0.039978	0.0335693	0.0735474
0.0421143	0.0354004	0.0775146
0.0439453	0.0372314	0.0811768
0.0469971	0.038147	0.085144
0.0497437	0.0390625	0.0888062
0.0515747	0.0402832	0.0918579
0.0524902	0.0424194	0.0949097
0.0531006	0.0445557	0.0976563
0.0534058	0.0466919	0.100098
0.0537109	0.0482178	0.101929
0.0537109	0.0500488	0.10376
0.0537109	0.0515747	0.105286
0.0537109	0.0527954	0.106506
0.0537109	0.0537109	0.107422
0.0527954	0.0540161	0.106812
0.0515747	0.0540161	0.105591
0.050354	0.0527954	0.103149
0.0488281	0.0509644	0.0997925
0.0463867	0.0491333	0.09552
0.0427246	0.0473022	0.0900269
0.038147	0.0454712	0.0836182
0.0335693	0.0430298	0.0765991
0.0286865	0.0402832	0.0689697
0.0241089	0.0372314	0.0613403
0.0195313	0.03479	0.0543213
0.0143433	0.0332642	0.0476074
0.00854492	0.0320435	0.0405884
0.00274658	0.0311279	0.0338745
-0.00213623	0.0299072	0.027771
-0.00579834	0.027771	0.0219727
-0.00915527	0.0253296	0.0161743
-0.0125122	0.0228882	0.010376
-0.0161743	0.0201416	0.00396729
-0.020752	0.0180054	-0.00274658
-0.0253296	0.0158691	-0.00946045
-0.0299072	0.0137329	-0.0161743
-0.0338745	0.0119019	-0.0219727
-0.0375366	0.010376	-0.0271606
-0.0408936	0.0088501	-0.0320435
-0.0430298	0.00701904	-0.0360107
-0.0445557	0.00549316	-0.0390625
-0.0454712	0.00427246	-0.0411987
-0.0457764	0.00335693	-0.0424194
-0.0457764	0.00213623	-0.0436401
-0.0454712	0.000610352	-0.0448608
-0.0445557	-0.000915527	-0.0454712
-0.0436401	-0.00244141	-0.0460815
-0.043335	-0.00335693	-0.0466919
-0.0436401	-0.00366211	-0.0473022
-0.045166	-0.00396729	-0.0491333
-0.0476074	-0.00366211	-0.0512695
-0.0506592	-0.00305176	-0.0537109
-0.0531006	-0.00213623	-0.0552368
-0.055542	-0.000915527	-0.0564575
-0.057373	0	-0.057373
-0.0585938	0.000305176	-0.0582886
-0.0592041	0.000305176	-0.0588989
-0.0592041	0	-0.0592041
-0.0588989	0.000305176	-0.0585938
-0.0582886	0.000610352	-0.0576782
-0.057373	0.000610352	-0.0567627
-0.0564575	0.000305176	-0.0561523
-0.055542	0	-0.055542
-0.0546265	0	-0.0546265
-0.0537109	-0.000305176	-0.0540161
-0.0524902	-0.000915527	-0.0534058
-0.0509644	-0.0012207	-0.0521851
-0.0497437	-0.00152588	-0.0512695
-0.0488281	-0.0012207	-0.0500488
-0.0476074	-0.00152588	-0.0491333
-0.0466919	-0.00152588	-0.0482178
-0.0457764	-0.00152588	-0.0473022
-0.0448608	-0.0012207	-0.0460815
-0.0445557	0	-0.0445557
-0.0448608	0.00152588	-0.043335
-0.045166	0.00305176	-0.0421143
-0.0454712	0.00457764	-0.0408936
-0.0454712	0.00579834	-0.0396729
-0.0445557	0.00671387	-0.0378418
-0.0430298	0.00701904	-0.0360107
-0.0408936	0.00701904	-0.0338745
-0.0390625	0.00732422	-0.0317383
-0.0372314	0.00732422	-0.0299072
-0.0354004	0.00671387	-0.0286865
-0.0338745	0.00640869	-0.0274658
-0.0332642	0.00701904	-0.0262451
-0.0332642	0.00793457	-0.0253296
-0.032959	0.0088501	-0.0241089
-0.032959	0.00976563	-0.0231934
-0.0332642	0.0106812	-0.022583
-0.03479	0.012207	-0.022583
-0.0366211	0.0137329	-0.0228882
-0.038147	0.0149536	-0.0231934
-0.0393677	0.015564	-0.0238037
-0.0405884	0.0161743	-0.0244141
-0.0418091	0.0167847	-0.0250244
-0.0427246	0.0167847	-0.0259399
-0.0430298	0.0164795	-0.0265503
-0.0427246	0.015564	-0.0271606
-0.0418091	0.0149536	-0.0268555
-0.0408936	0.0140381	-0.0268555
-0.0402832	0.0134277	-0.0268555
-0.0396729	0.0128174	-0.0268555
-0.0387573	0.0125122	-0.0262451
-0.0378418	0.0119019	-0.0259399
-0.0363159	0.0109863	-0.0253296
-0.0357056	0.010376	-0.0253296
-0.0354004	0.010376	-0.0250244
-0.0354004	0.010376	-0.0250244
-0.0357056	0.010376	-0.0253296
-0.0363159	0.0106812	-0.0256348
-0.0375366	0.0115967	-0.0259399
-0.038147	0.0119019	-0.0262451
-0.038147	0.0106812	-0.0274658
-0.0372314	0.00946045	-0.027771
-0.0366211	0.00823975	-0.0283813
-0.0357056	0.00701904	-0.0286865
-0.0354004	0.00549316	-0.0299072
-0.0363159	0.00457764	-0.0317383
-0.0375366	0.00396729	-0.0335693
-0.038147	0.00305176	-0.0350952
-0.0378418	0.00183105	-0.0360107
-0.0375366	0.000915527	-0.0366211
-0.0378418	0.000610352	-0.0372314
-0.0390625	0.000610352	-0.0384521
-0.039978	0.000915527	-0.0390625
-0.0396729	0.000305176	-0.0393677
-0.0387573	-0.000610352	-0.0393677
-0.0375366	-0.00183105	-0.0393677
-0.0366211	-0.00274658	-0.0393677
-0.0360107	-0.00366211	-0.0396729
-0.0344849	-0.00488281	-0.0393677
-0.0332642	-0.00549316	-0.0387573
-0.0326538	-0.00579834	-0.0384521
-0.032959	-0.00549316	-0.0384521
-0.0344849	-0.00488281	-0.0393677
-0.0363159	-0.00427246	-0.0405884
-0.0387573	-0.00335693	-0.0421143
-0.0411987	-0.00213623	-0.043335
-0.0436401	-0.000610352	-0.0442505
-0.0460815	0.000305176	-0.0457764
-0.0479126	0.0012207	-0.0466919
-0.0488281	0.00183105	-0.0469971
-0.050354	0.00213623	-0.0482178
-0.0512695	0.00183105	-0.0494385
-0.0509644	0.0012207	-0.0497437
-0.0500488	0.000610352	-0.0494385
-0.0491333	0.000305176	-0.0488281
-0.0482178	0	-0.0482178
-0.0469971	-0.000915527	-0.0479126
-0.0448608	-0.00274658	-0.0476074
-0.043335	-0.00335693	-0.0466919
-0.043335	-0.00335693	-0.0466919
-0.0436401	-0.00305176	-0.0466919
-0.043335	-0.00274658	-0.0460815
-0.0430298	-0.00244141	-0.0454712
-0.0424194	-0.00152588	-0.0439453
-0.0421143	0	-0.0421143
-0.0421143	0.00183105	-0.0402832
-0.0424194	0.00427246	-0.038147
-0.043335	0.00701904	-0.0363159
-0.0442505	0.0109863	-0.0332642
-0.045166	0.015564	-0.0296021
-0.0454712	0.0204468	-0.0250244
-0.0454712	0.0256348	-0.0198364
-0.0460815	0.0314331	-0.0146484
-0.0457764	0.0360107	-0.00976563
-0.0436401	0.0396729	-0.00396729
-0.0411987	0.0430298	0.00183105
-0.0390625	0.0463867	0.00732422
-0.0372314	0.0497437	0.0125122
-0.0350952	0.0518799	0.0167847
-0.0323486	0.0527954	0.0204468
-0.0299072	0.0524902	0.022583
-0.0274658	0.0509644	0.0234985
-0.0253296	0.0488281	0.0234985
-0.0231934	0.0466919	0.0234985
-0.020752	0.0442505	0.0234985
-0.0170898	0.0408936	0.0238037
-0.0125122	0.0369263	0.0244141
-0.00762939	0.032959	0.0253296
-0.00305176	0.0299072	0.0268555
0.00152588	0.027771	0.0292969
0.00579834	0.0259399	0.0317383
0.00946045	0.0247192	0.0341797
0.0128174	0.0241089	0.0369263
0.0149536	0.0241089	0.0390625
0.0158691	0.0244141	0.0402832
0.0161743	0.0238037	0.039978
0.015564	0.0228882	0.0384521
0.0143433	0.0213623	0.0357056
